  # July 4, 2014 12:22:22
 # jmin,jmax    0   50
 # Eau     0.00200000
 # r0,ra,rb,rdel,tol,Bau,mu   3.5000  25.0000  25.0000   4.0000  1.0000E-03  3.0130E-07  6.8548E+03
 # parity bigJ  0  0        1  0        1  1        2  0        2  1        2  2        3  0        3  1        3  2        3  3
 # jmin,jmax,maxlamb are            0          50         100
 # j and jp are          26          40
 # lam  B-lambda(j,jp)  angle
#   14     28.9798      6.5376
#   15      3.7134     11.6164
#   16      9.3721     15.2895
#   17      1.8646     18.4207
#   18      5.3650     21.2534
#   19      1.1832     23.8965
#   20      3.8296     26.4094
#   21      0.8136     28.8285
#   22      2.8371     31.1780
#   23      0.5949     33.4749
#   24      2.2014     35.7317
#   25      0.4645     37.9581
#   26      1.8010     40.1616
#   27      0.3776     42.3482
#   28      1.4463     44.5230
#   29      0.2957     46.6903
#   30      1.0593     48.8538
#   31      0.2010     51.0169
#   32      0.7890     53.1826
#   33      0.1134     55.3535
#   34      0.6191     57.5323
#   35      0.0618     59.7214
#   36      0.4383     61.9233
#   37      0.0413     64.1403
#   38      0.3211     66.3747
#   39      0.0308     68.6289
#   40      0.2690     70.9055
#   41      0.0226     73.2069
#   42      0.2304     75.5360
#   43      0.0162     77.8954
#   44      0.1931     80.2884
#   45      0.0113     82.7182
#   46      0.1407     85.1884
#   47      0.0077     87.7032
#   48      0.1090     90.2670
#   49      0.0048     92.8848
#   50      0.0991     95.5622
#   51      0.0023     98.3059
#   52      0.0664    101.1233
#   53      0.0009    104.0233
#   54      0.0271    107.0163
#   55      0.0003    110.1148
#   56      0.0091    113.3342
#   57      0.0001    116.6935
#   58      0.0036    120.2168
#   59      0.0000    123.9355
#   60      0.0010    127.8923
#   61      0.0000    132.1466
#   62      0.0001    136.7870
#   63      0.0000    141.9551
#   64      0.0002    147.9058
#   65      0.0000    155.1969
#   66      0.0002    165.7581
   0    4.00669E+01    1.0000000000000000
   1    3.44176E+01    0.8590047718079924
   2    2.69134E+01    0.6717116466193288
   3    2.07591E+01    0.5181115467104837
   4    1.64401E+01    0.4103155842659105
   5    1.33818E+01    0.3339865236394727
   6    1.13231E+01    0.2826054625630174
   7    9.97147E+00    0.2488704709719289
   8    8.87352E+00    0.2214677706297266
   9    7.82334E+00    0.1952570541932182
  10    6.86618E+00    0.1713680049586414
  11    6.03069E+00    0.1505156316705729
  12    5.32679E+00    0.1329473441502236
  13    4.78183E+00    0.1193462437450010
  14    4.34965E+00    0.1085598401200949
  15    3.94444E+00    0.0984462936202076
  16    3.57165E+00    0.0891421433497402
  17    3.26444E+00    0.0814747495948658
  18    2.98930E+00    0.0746076661484650
  19    2.71490E+00    0.0677590916196352
  20    2.47071E+00    0.0616645396947407
  21    2.27856E+00    0.0568689138248986
  22    2.12439E+00    0.0530210104060702
  23    1.99477E+00    0.0497859181151249
  24    1.88343E+00    0.0470070501238848
  25    1.77538E+00    0.0443104952194536
  26    1.66238E+00    0.0414901871075415
  27    1.55376E+00    0.0387791261674111
  28    1.46366E+00    0.0365304827524610
  29    1.38490E+00    0.0345647925990153
  30    1.31449E+00    0.0328073499364968
  31    1.23831E+00    0.0309061789479386
  32    1.17205E+00    0.0292522771899083
  33    1.10434E+00    0.0275623594855345
  34    1.05123E+00    0.0262369886525189
  35    9.95288E-01    0.0248406698788056
  36    9.59665E-01    0.0239515729572843
  37    8.97966E-01    0.0224116613460088
  38    9.01937E-01    0.0225107769001273
  39    8.10851E-01    0.0202374324278752
  40    8.62067E-01    0.0215156928993316
  41    7.56543E-01    0.0188819978645852
  42    8.20798E-01    0.0204856938387508
  43    7.07223E-01    0.0176510587836609
  44    8.05791E-01    0.0201111480195628
  45    6.72244E-01    0.0167780517178347
  46    8.08255E-01    0.0201726426166059
  47    5.82884E-01    0.0145477775889515
  48    7.83980E-01    0.0195667737307386
  49    5.71249E-01    0.0142573764026928
  50    8.70679E-01    0.0217306369923016
  51    5.04335E-01    0.0125873303284355
  52    1.14567E+00    0.0285938578451431
