  # July 4, 2014 12:22:22
 # jmin,jmax    0   50
 # Eau     0.00200000
 # r0,ra,rb,rdel,tol,Bau,mu   3.5000  25.0000  25.0000   4.0000  1.0000E-03  3.0130E-07  6.8548E+03
 # parity bigJ  0  0        1  0        1  1        2  0        2  1        2  2        3  0        3  1        3  2        3  3
 # jmin,jmax,maxlamb are            0          50         100
 # j and jp are          32          34
 # lam  B-lambda(j,jp)  angle
#    2   3402.1044      2.4197
#    3    100.5888      4.8414
#    4    418.9290      6.8490
#    5     35.2329      8.7341
#    6    128.8889     10.5638
#    7     14.5621     12.3641
#    8     54.1267     14.1474
#    9      6.1551     15.9208
#   10     25.9620     17.6887
#   11      3.2888     19.4541
#   12     13.4123     21.2190
#   13      2.1901     22.9850
#   14      8.0242     24.7534
#   15      1.5303     26.5253
#   16      5.1794     28.3016
#   17      1.1179     30.0831
#   18      3.5116     31.8707
#   19      0.8218     33.6650
#   20      2.6385     35.4668
#   21      0.5848     37.2768
#   22      2.0106     39.0958
#   23      0.3884     40.9243
#   24      1.5674     42.7632
#   25      0.2295     44.6132
#   26      1.3476     46.4750
#   27      0.1346     48.3495
#   28      1.1346     50.2374
#   29      0.0983     52.1397
#   30      0.8841     54.0573
#   31      0.0813     55.9911
#   32      0.7617     57.9421
#   33      0.0649     59.9114
#   34      0.6558     61.9002
#   35      0.0514     63.9098
#   36      0.4568     65.9413
#   37      0.0417     67.9964
#   38      0.3215     70.0764
#   39      0.0330     72.1831
#   40      0.2671     74.3182
#   41      0.0252     76.4838
#   42      0.2263     78.6820
#   43      0.0187     80.9153
#   44      0.1927     83.1861
#   45      0.0131     85.4976
#   46      0.1435     87.8528
#   47      0.0087     90.2556
#   48      0.1081     92.7099
#   49      0.0054     95.2206
#   50      0.1006     97.7929
#   51      0.0027    100.4332
#   52      0.0727    103.1485
#   53      0.0011    105.9474
#   54      0.0316    108.8400
#   55      0.0004    111.8384
#   56      0.0105    114.9574
#   57      0.0001    118.2157
#   58      0.0042    121.6367
#   59      0.0000    125.2513
#   60      0.0012    129.1008
#   61      0.0000    133.2437
#   62      0.0002    137.7664
#   63      0.0000    142.8076
#   64      0.0002    148.6167
#   65      0.0000    155.7394
#   66      0.0003    166.0633
   0    4.07470E+02    1.0000000000000000
   1    3.98604E+02    0.9782419141005004
   2    3.85591E+02    0.9463045693991834
   3    3.72406E+02    0.9139470209495555
   4    3.59770E+02    0.8829363062683112
   5    3.47266E+02    0.8522499622574581
   6    3.34919E+02    0.8219471340604272
   7    3.22760E+02    0.7921071463289188
   8    3.10724E+02    0.7625686773171770
   9    2.98966E+02    0.7337129245803619
  10    2.87668E+02    0.7059871570821076
  11    2.76809E+02    0.6793362515672706
  12    2.66338E+02    0.6536396767966700
  13    2.56270E+02    0.6289305239257997
  14    2.46597E+02    0.6051898794923128
  15    2.37332E+02    0.5824521327185386
  16    2.28534E+02    0.5608606202129522
  17    2.20167E+02    0.5403259030952414
  18    2.12127E+02    0.5205962053668873
  19    2.04401E+02    0.5016349976984492
  20    1.97028E+02    0.4835399906868332
  21    1.89985E+02    0.4662542019555604
  22    1.83216E+02    0.4496422569547338
  23    1.76690E+02    0.4336283674770154
  24    1.70391E+02    0.4181691096478422
  25    1.64311E+02    0.4032465257250674
  26    1.58458E+02    0.3888827030430824
  27    1.52824E+02    0.3750555482938264
  28    1.47369E+02    0.3616693559408046
  29    1.42056E+02    0.3486282470906485
  30    1.36889E+02    0.3359482666311668
  31    1.31878E+02    0.3236513036666769
  32    1.27040E+02    0.3117773646866166
  33    1.22349E+02    0.3002648111673067
  34    1.17807E+02    0.2891179967022195
  35    1.13390E+02    0.2782778500046759
  36    1.09110E+02    0.2677748175379759
  37    1.04933E+02    0.2575233372659881
  38    1.00901E+02    0.2476278562994690
  39    9.69125E+01    0.2378395544947929
  40    9.31169E+01    0.2285246692931470
  41    8.92864E+01    0.2191238333175160
  42    8.56966E+01    0.2103140368659162
  43    8.20328E+01    0.2013222926893266
  44    7.86105E+01    0.1929234356979548
  45    7.50932E+01    0.1842914118721117
  46    7.18460E+01    0.1763222046197946
  47    6.84414E+01    0.1679668499438771
  48    6.53455E+01    0.1603690312357450
  49    6.20288E+01    0.1522291341644077
  50    5.91092E+01    0.1450639310603670
  51    5.58385E+01    0.1370370918622814
  52    5.29953E+01    0.1300594995935802
  53    4.98193E+01    0.1222649337734195
  54    4.70868E+01    0.1155590062051121
  55    4.37214E+01    0.1072997084349681
  56    4.11549E+01    0.1010011756136201
  57    3.76655E+01    0.0924376078674806
  58    3.53352E+01    0.0867185188990399
  59    3.15917E+01    0.0775313513103173
  60    2.95676E+01    0.0725638767773431
  61    2.54823E+01    0.0625378509458644
  62    2.36072E+01    0.0579361250862360
  63    1.85895E+01    0.0456217808402047
  64    1.72128E+01    0.0422431625274260
