  # July 4, 2014 12:22:22
 # jmin,jmax    0   50
 # Eau     0.00200000
 # r0,ra,rb,rdel,tol,Bau,mu   3.5000  25.0000  25.0000   4.0000  1.0000E-03  3.0130E-07  6.8548E+03
 # parity bigJ  0  0        1  0        1  1        2  0        2  1        2  2        3  0        3  1        3  2        3  3
 # jmin,jmax,maxlamb are            0          50         100
 # j and jp are          28          31
 # lam  B-lambda(j,jp)  angle
#    3    339.2900      3.3117
#    4      4.4491      6.3456
#    5    103.9543      8.7723
#    6      2.9981     11.0031
#    7     55.2158     13.1400
#    8      1.8905     15.2246
#    9     33.9883     17.2778
#   10      1.4112     19.3116
#   11     22.8114     21.3337
#   12      1.0335     23.3491
#   13     15.6271     25.3616
#   14      0.7791     27.3741
#   15     11.3931     29.3887
#   16      0.6143     31.4074
#   17      8.3030     33.4319
#   18      0.4626     35.4634
#   19      6.1531     37.5035
#   20      0.3510     39.5534
#   21      4.6109     41.6142
#   22      0.2752     43.6873
#   23      3.4629     45.7737
#   24      0.2192     47.8748
#   25      2.7485     49.9918
#   26      0.1751     52.1259
#   27      2.1610     54.2786
#   28      0.1398     56.4512
#   29      1.7596     58.6453
#   30      0.1110     60.8624
#   31      1.4589     63.1043
#   32      0.0873     65.3727
#   33      1.1844     67.6697
#   34      0.0679     69.9975
#   35      0.9889     72.3582
#   36      0.0518     74.7546
#   37      0.8486     77.1895
#   38      0.0387     79.6659
#   39      0.7402     82.1874
#   40      0.0278     84.7579
#   41      0.6318     87.3817
#   42      0.0187     90.0638
#   43      0.4774     92.8101
#   44      0.0118     95.6269
#   45      0.3115     98.5220
#   46      0.0075    101.5044
#   47      0.2062    104.5847
#   48      0.0047    107.7758
#   49      0.1455    111.0934
#   50      0.0027    114.5571
#   51      0.0955    118.1918
#   52      0.0015    122.0300
#   53      0.0697    126.1156
#   54      0.0007    130.5102
#   55      0.0558    135.3053
#   56      0.0002    140.6476
#   57      0.0335    146.8006
#   58      0.0000    154.3419
#   59      0.0155    165.2694
   0    1.40304E+02    1.0000000000000000
   1    1.22665E+02    0.8742799233680644
   2    1.02096E+02    0.7276803313969008
   3    8.62274E+01    0.6145754015840271
   4    7.43324E+01    0.5297953759225714
   5    6.44646E+01    0.4594639324923367
   6    5.63534E+01    0.4016519165080283
   7    5.01384E+01    0.3573555027625048
   8    4.52912E+01    0.3228079237570629
   9    4.11423E+01    0.2932371059755404
  10    3.76763E+01    0.2685336239204178
  11    3.47837E+01    0.2479169443044494
  12    3.23454E+01    0.2305378547354702
  13    3.00875E+01    0.2144452724368717
  14    2.81059E+01    0.2003215428121204
  15    2.63676E+01    0.1879316525589524
  16    2.48939E+01    0.1774282181788974
  17    2.34861E+01    0.1673947013275552
  18    2.22964E+01    0.1589148871355271
  19    2.11597E+01    0.1508133854470273
  20    2.02012E+01    0.1439818159746237
  21    1.92283E+01    0.1370474048677734
  22    1.84342E+01    0.1313874656712552
  23    1.75872E+01    0.1253510066845152
  24    1.69070E+01    0.1205024769092005
  25    1.61687E+01    0.1152405789178348
  26    1.56137E+01    0.1112851720127252
  27    1.49792E+01    0.1067627201329931
  28    1.45130E+01    0.1034395089998734
  29    1.39330E+01    0.0993056200627867
  30    1.35591E+01    0.0966410955883942
  31    1.30420E+01    0.0929552748921140
  32    1.27773E+01    0.0910685246379694
  33    1.22889E+01    0.0875878574973722
  34    1.20763E+01    0.0860723971948828
  35    1.15726E+01    0.0824823734995593
  36    1.14085E+01    0.0813124698303496
  37    1.08829E+01    0.0775663213305738
  38    1.08402E+01    0.0772622794982169
  39    1.02533E+01    0.0730790298400278
  40    1.03946E+01    0.0740863498611687
  41    9.70392E+00    0.0691635829157423
  42    1.00262E+01    0.0714602221308719
  43    9.26480E+00    0.0660337740155900
  44    9.77219E+00    0.0696501160251815
  45    8.92335E+00    0.0636001395973784
  46    9.51598E+00    0.0678240656497628
  47    8.54597E+00    0.0609103753292550
  48    9.34719E+00    0.0666209879104208
  49    8.20178E+00    0.0584572228208966
  50    9.32832E+00    0.0664864780889342
  51    7.87521E+00    0.0561296530374459
  52    9.54018E+00    0.0679965252126250
  53    7.52259E+00    0.0536163775323270
  54    1.02553E+01    0.0730935019498240
  55    6.64805E+00    0.0473832254775944
  56    1.35893E+01    0.0968558404775922
