  # July 4, 2014 12:22:22
 # jmin,jmax    0   50
 # Eau     0.00200000
 # r0,ra,rb,rdel,tol,Bau,mu   3.5000  25.0000  25.0000   4.0000  1.0000E-03  3.0130E-07  6.8548E+03
 # parity bigJ  0  0        1  0        1  1        2  0        2  1        2  2        3  0        3  1        3  2        3  3
 # jmin,jmax,maxlamb are            0          50         100
 # j and jp are          24          50
 # lam  B-lambda(j,jp)  angle
#   26      7.5940      8.2922
#   27      0.2404     14.5982
#   28      3.3707     19.0769
#   29      0.1599     22.8337
#   30      2.2083     26.1840
#   31      0.1034     29.2707
#   32      1.5111     32.1724
#   33      0.0740     34.9382
#   34      1.0087     37.6006
#   35      0.0580     40.1830
#   36      0.7262     42.7027
#   37      0.0471     45.1729
#   38      0.5958     47.6041
#   39      0.0378     50.0051
#   40      0.4917     52.3829
#   41      0.0292     54.7437
#   42      0.3777     57.0928
#   43      0.0212     59.4349
#   44      0.2822     61.7744
#   45      0.0141     64.1151
#   46      0.2090     66.4609
#   47      0.0081     68.8151
#   48      0.1332     71.1814
#   49      0.0037     73.5632
#   50      0.0606     75.9638
#   51      0.0014     78.3867
#   52      0.0188     80.8358
#   53      0.0005     83.3146
#   54      0.0059     85.8274
#   55      0.0002     88.3786
#   56      0.0028     90.9728
#   57      0.0000     93.6154
#   58      0.0010     96.3124
#   59      0.0000     99.0704
#   60      0.0002    101.8971
#   61      0.0000    104.8015
#   62      0.0000    107.7940
#   63      0.0000    110.8871
#   64      0.0000    114.0961
#   65      0.0000    117.4399
#   66      0.0000    120.9424
#   67      0.0000    124.6347
#   68      0.0000    128.5587
#   69      0.0000    132.7733
#   70      0.0000    137.3657
#   71      0.0000    142.4754
#   72      0.0000    148.3534
#   73      0.0000    155.5492
#   74      0.0000    165.9638
   0    1.68635E+01    1.0000000000000000
   1    1.44763E+01    0.8584439184275691
   2    1.09345E+01    0.6484161460997327
   3    7.73249E+00    0.4585355149671973
   4    5.63168E+00    0.3339574243243594
   5    4.47704E+00    0.2654874429772004
   6    3.74368E+00    0.2219994070242659
   7    3.10899E+00    0.1843628734782531
   8    2.56781E+00    0.1522704111036453
   9    2.20601E+00    0.1308160467891137
  10    2.01036E+00    0.1192137136364964
  11    1.88583E+00    0.1118295117502682
  12    1.76455E+00    0.1046375438043363
  13    1.64331E+00    0.0974478610130147
  14    1.53621E+00    0.0910970703966376
  15    1.43545E+00    0.0851219569895375
  16    1.32760E+00    0.0787262729596383
  17    1.22110E+00    0.0724109024736966
  18    1.13712E+00    0.0674310152167333
  19    1.08129E+00    0.0641204616990950
  20    1.03887E+00    0.0616051028605849
  21    9.94761E-01    0.0589891687859233
  22    9.47207E-01    0.0561692389944039
  23    9.01979E-01    0.0534871792048132
  24    8.62035E-01    0.0511185203943888
  25    8.26048E-01    0.0489845100367977
  26    7.92489E-01    0.0469944688316425
  27    7.61317E-01    0.0451459389642947
  28    7.32871E-01    0.0434591153915938
  29    7.06810E-01    0.0419137065922883
  30    6.82558E-01    0.0404755941409368
  31    6.59664E-01    0.0391179629240936
  32    6.37966E-01    0.0378312469794757
  33    6.17194E-01    0.0365994975931241
  34    5.97028E-01    0.0354036685014334
  35    5.76875E-01    0.0342085870309515
  36    5.56238E-01    0.0329848476132555
  37    5.34229E-01    0.0316797137915868
  38    5.10269E-01    0.0302588813506693
  39    4.83941E-01    0.0286976391147945
  40    4.54459E-01    0.0269493490693717
  41    4.23115E-01    0.0250906380628652
  42    3.94371E-01    0.0233861395877573
  43    3.59695E-01    0.0213298802423163
  44    3.37426E-01    0.0200093177199745
  45    3.35863E-01    0.0199166269485795
  46    3.39869E-01    0.0201541819357283
  47    2.81812E-01    0.0167114326606699
  48    4.71582E-01    0.0279647507806653
