  # July 4, 2014 12:22:22
 # jmin,jmax    0   50
 # Eau     0.00200000
 # r0,ra,rb,rdel,tol,Bau,mu   3.5000  25.0000  25.0000   4.0000  1.0000E-03  3.0130E-07  6.8548E+03
 # parity bigJ  0  0        1  0        1  1        2  0        2  1        2  2        3  0        3  1        3  2        3  3
 # jmin,jmax,maxlamb are            0          50         100
 # j and jp are          26          42
 # lam  B-lambda(j,jp)  angle
#   16     21.4824      6.8219
#   17      2.8103     12.0893
#   18      7.8245     15.8802
#   19      1.5888     19.0978
#   20      4.7018     21.9976
#   21      1.0433     24.6944
#   22      3.3038     27.2509
#   23      0.7199     29.7056
#   24      2.5338     32.0842
#   25      0.5152     34.4049
#   26      1.9956     36.6810
#   27      0.3819     38.9227
#   28      1.5677     41.1380
#   29      0.2930     43.3335
#   30      1.2731     45.5145
#   31      0.2243     47.6858
#   32      1.1638     49.8511
#   33      0.1617     52.0140
#   34      0.9386     54.1778
#   35      0.1052     56.3452
#   36      0.5862     58.5190
#   37      0.0630     60.7018
#   38      0.3865     62.8960
#   39      0.0394     65.1042
#   40      0.3001     67.3286
#   41      0.0277     69.5719
#   42      0.2348     71.8364
#   43      0.0194     74.1249
#   44      0.1840     76.4400
#   45      0.0128     78.7846
#   46      0.1309     81.1618
#   47      0.0082     83.5750
#   48      0.1067     86.0277
#   49      0.0047     88.5242
#   50      0.0955     91.0687
#   51      0.0022     93.6663
#   52      0.0581     96.3226
#   53      0.0008     99.0443
#   54      0.0216    101.8386
#   55      0.0003    104.7145
#   56      0.0074    107.6822
#   57      0.0001    110.7543
#   58      0.0029    113.9458
#   59      0.0000    117.2756
#   60      0.0006    120.7677
#   61      0.0000    124.4533
#   62      0.0001    128.3744
#   63      0.0000    132.5901
#   64      0.0001    137.1881
#   65      0.0000    142.3087
#   66      0.0001    148.2043
#   67      0.0000    155.4276
#   68      0.0001    165.8899
   0    3.58016E+01    1.0000000000000000
   1    3.05243E+01    0.8525964202062366
   2    2.32440E+01    0.6492463689466682
   3    1.71326E+01    0.4785418609164385
   4    1.30738E+01    0.3651730529485429
   5    1.05122E+01    0.2936232833979345
   6    8.87287E+00    0.2478346844649478
   7    7.75663E+00    0.2166561103988968
   8    6.78630E+00    0.1895530820643118
   9    5.81396E+00    0.1623939275263339
  10    4.97006E+00    0.1388224180329298
  11    4.36502E+00    0.1219225145080785
  12    3.94446E+00    0.1101756180993798
  13    3.61476E+00    0.1009664511706462
  14    3.32029E+00    0.0927415229815759
  15    3.00948E+00    0.0840598904698974
  16    2.67486E+00    0.0747133828389509
  17    2.39237E+00    0.0668229336493866
  18    2.22268E+00    0.0620832430438900
  19    2.12149E+00    0.0592569867855267
  20    2.01320E+00    0.0562321216719312
  21    1.87751E+00    0.0524421809296799
  22    1.73297E+00    0.0484047343766285
  23    1.59665E+00    0.0445971898651360
  24    1.48690E+00    0.0415318166013706
  25    1.41273E+00    0.0394599715086160
  26    1.35820E+00    0.0379369995715344
  27    1.29646E+00    0.0362123111366991
  28    1.22153E+00    0.0341194080342227
  29    1.14826E+00    0.0320728939248778
  30    1.08883E+00    0.0304128664331985
  31    1.04200E+00    0.0291048807707660
  32    1.00101E+00    0.0279600787085226
  33    9.58480E-01    0.0267720121266631
  34    9.20209E-01    0.0257030390843563
  35    8.77690E-01    0.0245154113796181
  36    8.44428E-01    0.0235863349839428
  37    8.07601E-01    0.0225577060138755
  38    7.78022E-01    0.0217315036596504
  39    7.44596E-01    0.0207978470382678
  40    7.37108E-01    0.0205887099239058
  41    6.75702E-01    0.0188735328560675
  42    7.23396E-01    0.0202057139940555
  43    6.29734E-01    0.0175895489611774
  44    6.88633E-01    0.0192347238377316
  45    5.72936E-01    0.0160031033907734
  46    6.80545E-01    0.0190088007639754
  47    5.87467E-01    0.0164089750166147
  48    7.51324E-01    0.0209857944915831
  49    5.05747E-01    0.0141263980961934
  50    6.94554E-01    0.0194000980038567
  51    4.66764E-01    0.0130375333347652
  52    1.15565E+00    0.0322794117157484
