  # July 4, 2014 12:22:22
 # jmin,jmax    0   50
 # Eau     0.00200000
 # r0,ra,rb,rdel,tol,Bau,mu   3.5000  25.0000  25.0000   4.0000  1.0000E-03  3.0130E-07  6.8548E+03
 # parity bigJ  0  0        1  0        1  1        2  0        2  1        2  2        3  0        3  1        3  2        3  3
 # jmin,jmax,maxlamb are            0          50         100
 # j and jp are          31          48
 # lam  B-lambda(j,jp)  angle
#   17     38.7958      6.0389
#   18      2.0768     10.6834
#   19     15.4932     14.0161
#   20      1.4107     16.8367
#   21      9.2069     19.3718
#   22      1.2210     21.7231
#   23      6.0435     23.9464
#   24      1.0097     26.0758
#   25      4.3279     28.1341
#   26      0.7836     30.1373
#   27      3.3881     32.0971
#   28      0.5943     34.0225
#   29      2.6648     35.9204
#   30      0.4366     37.7965
#   31      2.1686     39.6553
#   32      0.3058     41.5007
#   33      1.8068     43.3358
#   34      0.2028     45.1636
#   35      1.4033     46.9865
#   36      0.1246     48.8066
#   37      1.0802     50.6260
#   38      0.0661     52.4465
#   39      0.8633     54.2698
#   40      0.0296     56.0974
#   41      0.7044     57.9309
#   42      0.0147     59.7718
#   43      0.5647     61.6215
#   44      0.0100     63.4814
#   45      0.3780     65.3529
#   46      0.0068     67.2375
#   47      0.1962     69.1365
#   48      0.0043     71.0515
#   49      0.1014     72.9840
#   50      0.0026     74.9355
#   51      0.0606     76.9079
#   52      0.0012     78.9028
#   53      0.0281     80.9221
#   54      0.0004     82.9680
#   55      0.0074     85.0425
#   56      0.0001     87.1481
#   57      0.0010     89.2873
#   58      0.0000     91.4631
#   59      0.0001     93.6785
#   60      0.0000     95.9372
#   61      0.0001     98.2431
#   62      0.0000    100.6007
#   63      0.0001    103.0151
#   64      0.0000    105.4922
#   65      0.0000    108.0388
#   66      0.0000    110.6629
#   67      0.0000    113.3741
#   68      0.0000    116.1837
#   69      0.0000    119.1058
#   70      0.0000    122.1576
#   71      0.0000    125.3614
#   72      0.0000    128.7460
#   73      0.0000    132.3502
#   74      0.0000    136.2286
#   75      0.0000    140.4624
#   76      0.0000    145.1812
#   77      0.0000    150.6185
#   78      0.0000    157.2849
#   79      0.0000    166.9455
   0    5.48652E+01    1.0000000000000000
   1    4.89970E+01    0.8930434717544306
   2    3.98188E+01    0.7257571822169561
   3    3.06799E+01    0.5591877570691884
   4    2.37310E+01    0.4325336348726370
   5    1.92358E+01    0.3506009634741854
   6    1.63201E+01    0.2974580145532626
   7    1.41034E+01    0.2570555127566814
   8    1.22266E+01    0.2228483947777200
   9    1.06846E+01    0.1947436835657855
  10    9.48426E+00    0.1728648184572277
  11    8.52725E+00    0.1554219115959435
  12    7.69893E+00    0.1403245075501695
  13    6.95909E+00    0.1268397829359848
  14    6.33540E+00    0.1154720627341522
  15    5.85674E+00    0.1067478495457119
  16    5.50043E+00    0.1002535992113708
  17    5.19713E+00    0.0947254748162222
  18    4.88609E+00    0.0890563496621258
  19    4.56457E+00    0.0831961087385462
  20    4.27653E+00    0.0779460939126028
  21    4.05347E+00    0.0738804769010188
  22    3.87775E+00    0.0706778807259676
  23    3.70792E+00    0.0675824126530964
  24    3.52597E+00    0.0642661273827548
  25    3.34669E+00    0.0609985192284204
  26    3.18782E+00    0.0581027659171683
  27    3.04820E+00    0.0555580205277570
  28    2.91782E+00    0.0531815671083269
  29    2.79567E+00    0.0509552794737810
  30    2.68871E+00    0.0490057281037014
  31    2.59814E+00    0.0473550264998036
  32    2.51496E+00    0.0458389485163635
  33    2.42896E+00    0.0442715166577001
  34    2.33780E+00    0.0426099030603954
  35    2.24632E+00    0.0409426245105139
  36    2.16006E+00    0.0393703727355782
  37    2.08082E+00    0.0379259947285540
  38    2.00710E+00    0.0365824518788706
  39    1.93658E+00    0.0352970384439061
  40    1.86770E+00    0.0340415421390472
  41    1.79985E+00    0.0328049720316711
  42    1.73301E+00    0.0315866539449451
  43    1.66709E+00    0.0303852303520300
  44    1.60214E+00    0.0292014664096194
  45    1.53754E+00    0.0280238882300389
  46    1.47303E+00    0.0268481093281878
  47    1.40795E+00    0.0256619415328439
  48    1.34175E+00    0.0244553915881051
  49    1.27493E+00    0.0232374774464042
  50    1.21109E+00    0.0220739508914697
  51    1.14924E+00    0.0209466127200483
  52    1.09433E+00    0.0199458864538754
  53    1.06571E+00    0.0194241746883655
  54    1.03677E+00    0.0188965996913871
  55    9.77448E-01    0.0178154602743384
  56    9.72333E-01    0.0177222174926173
  57    9.11511E-01    0.0166136570206116
  58    9.16352E-01    0.0167018811754964
  59    8.02189E-01    0.0146210953768494
  60    1.11041E+00    0.0202388472113464
  61    6.34380E-01    0.0115625262252174
  62    1.55840E+00    0.0284041851023122
