  # July 4, 2014 12:22:22
 # jmin,jmax    0   50
 # Eau     0.00200000
 # r0,ra,rb,rdel,tol,Bau,mu   3.5000  25.0000  25.0000   4.0000  1.0000E-03  3.0130E-07  6.8548E+03
 # parity bigJ  0  0        1  0        1  1        2  0        2  1        2  2        3  0        3  1        3  2        3  3
 # jmin,jmax,maxlamb are            0          50         100
 # j and jp are          19          43
 # lam  B-lambda(j,jp)  angle
#   24      8.0934      9.6166
#   25      0.2692     16.9688
#   26      3.7499     22.2107
#   27      0.1892     26.6252
#   28      2.4533     30.5782
#   29      0.1230     34.2353
#   30      1.5895     37.6879
#   31      0.0763     40.9928
#   32      1.1446     44.1883
#   33      0.0497     47.3020
#   34      0.8310     50.3545
#   35      0.0363     53.3620
#   36      0.5237     56.3374
#   37      0.0289     59.2919
#   38      0.3635     62.2348
#   39      0.0229     65.1747
#   40      0.2899     68.1191
#   41      0.0166     71.0753
#   42      0.2381     74.0504
#   43      0.0112     77.0513
#   44      0.1994     80.0850
#   45      0.0074     83.1589
#   46      0.1433     86.2809
#   47      0.0049     89.4594
#   48      0.1099     92.7039
#   49      0.0030     96.0251
#   50      0.1025     99.4352
#   51      0.0014    102.9487
#   52      0.0709    106.5831
#   53      0.0005    110.3597
#   54      0.0301    114.3052
#   55      0.0002    118.4546
#   56      0.0104    122.8545
#   57      0.0001    127.5700
#   58      0.0044    132.6980
#   59      0.0000    138.3929
#   60      0.0014    144.9327
#   61      0.0000    152.9260
#   62      0.0004    164.4806
   0    2.04059E+01    1.0000000000000000
   1    1.62414E+01    0.7959142043076213
   2    1.14108E+01    0.5591927485164241
   3    8.05694E+00    0.3948332952396303
   4    5.84734E+00    0.2865509459500517
   5    4.29856E+00    0.2106527081107047
   6    3.39542E+00    0.1663937580863266
   7    2.91063E+00    0.1426364849301870
   8    2.56524E+00    0.1257105926241948
   9    2.30769E+00    0.1130892138879171
  10    2.10293E+00    0.1030549566141217
  11    1.89169E+00    0.0927027869733124
  12    1.73575E+00    0.0850611027324132
  13    1.66244E+00    0.0814687225265273
  14    1.59068E+00    0.0779519528509872
  15    1.48152E+00    0.0726026810525375
  16    1.37762E+00    0.0675105951389012
  17    1.28180E+00    0.0628151536606611
  18    1.19300E+00    0.0584632440336717
  19    1.11814E+00    0.0547947811604535
  20    1.07965E+00    0.0529085042109290
  21    1.04463E+00    0.0511925238385432
  22    1.01395E+00    0.0496890164556557
  23    9.67477E-01    0.0474115626841742
  24    9.36462E-01    0.0458916687762410
  25    8.94367E-01    0.0438287997471473
  26    8.73597E-01    0.0428109251651051
  27    8.21994E-01    0.0402821351860072
  28    8.15597E-01    0.0399686144337925
  29    7.26206E-01    0.0355879855295802
  30    7.55618E-01    0.0370293525428761
  31    6.13802E-01    0.0300795756657947
  32    6.78663E-01    0.0332581301385952
  33    5.47079E-01    0.0268098083897265
  34    6.49422E-01    0.0318251832659325
  35    4.91862E-01    0.0241038735846717
  36    6.45963E-01    0.0316556792694948
  37    3.47812E-01    0.0170446582764208
  38    6.28226E-01    0.0307864591819987
