  # July 4, 2014 12:22:22
 # jmin,jmax    0   50
 # Eau     0.00200000
 # r0,ra,rb,rdel,tol,Bau,mu   3.5000  25.0000  25.0000   4.0000  1.0000E-03  3.0130E-07  6.8548E+03
 # parity bigJ  0  0        1  0        1  1        2  0        2  1        2  2        3  0        3  1        3  2        3  3
 # jmin,jmax,maxlamb are            0          50         100
 # j and jp are          19          44
 # lam  B-lambda(j,jp)  angle
#   25     13.5043      9.7035
#   26      0.3983     17.1145
#   27      5.7365     22.3931
#   28      0.2434     26.8348
#   29      3.6221     30.8091
#   30      0.1863     34.4831
#   31      2.4020     37.9494
#   32      0.1367     41.2654
#   33      1.7772     44.4699
#   34      0.0940     47.5907
#   35      1.4531     50.6488
#   36      0.0616     53.6605
#   37      1.2199     56.6390
#   38      0.0405     59.5953
#   39      1.0251     62.5391
#   40      0.0276     65.4789
#   41      0.7448     68.4224
#   42      0.0188     71.3769
#   43      0.4252     74.3495
#   44      0.0117     77.3472
#   45      0.2394     80.3770
#   46      0.0067     83.4464
#   47      0.1652     86.5631
#   48      0.0036     89.7358
#   49      0.1061     92.9738
#   50      0.0020     96.2877
#   51      0.0669     99.6900
#   52      0.0011    103.1950
#   53      0.0493    106.8201
#   54      0.0005    110.5865
#   55      0.0284    114.5211
#   56      0.0001    118.6585
#   57      0.0093    123.0453
#   58      0.0000    127.7464
#   59      0.0016    132.8582
#   60      0.0000    138.5347
#   61      0.0002    145.0529
#   62      0.0000    153.0192
#   63      0.0002    164.5340
   0    3.39979E+01    1.0000000000000000
   1    2.71983E+01    0.7999992616398919
   2    1.86443E+01    0.5483961001534161
   3    1.25299E+01    0.3685485241016529
   4    9.33335E+00    0.2745273595590670
   5    7.74690E+00    0.2278642013871029
   6    6.62343E+00    0.1948188018684676
   7    5.48384E+00    0.1612995501740161
   8    4.48514E+00    0.1319240082157655
   9    3.87990E+00    0.1141218737064752
  10    3.59060E+00    0.1056123731058971
  11    3.38396E+00    0.0995343256573057
  12    3.12732E+00    0.0919857952149707
  13    2.82767E+00    0.0831720071484843
  14    2.57724E+00    0.0758060364624243
  15    2.41533E+00    0.0710436609272464
  16    2.27776E+00    0.0669971305664270
  17    2.11362E+00    0.0621690316357377
  18    1.95573E+00    0.0575249176458185
  19    1.84085E+00    0.0541458679401681
  20    1.75850E+00    0.0517238900372069
  21    1.68027E+00    0.0494227582361313
  22    1.60231E+00    0.0471296584986827
  23    1.52370E+00    0.0448173721342880
  24    1.45894E+00    0.0429127075226668
  25    1.38528E+00    0.0407459520179881
  26    1.33751E+00    0.0393410552923393
  27    1.25324E+00    0.0368623161923519
  28    1.22316E+00    0.0359773861260942
  29    1.11712E+00    0.0328584957215724
  30    1.10010E+00    0.0323578184913805
  31    9.83140E-01    0.0289176804742183
  32    9.77563E-01    0.0287536519843513
  33    8.55212E-01    0.0251548506191806
  34    9.39720E-01    0.0276405442613995
  35    7.56827E-01    0.0222609922684586
  36    8.86253E-01    0.0260678778866454
  37    7.16632E-01    0.0210787093791491
  38    1.43603E+00    0.0422387737073033
