  # July 4, 2014 12:22:22
 # jmin,jmax    0   50
 # Eau     0.00200000
 # r0,ra,rb,rdel,tol,Bau,mu   3.5000  25.0000  25.0000   4.0000  1.0000E-03  3.0130E-07  6.8548E+03
 # parity bigJ  0  0        1  0        1  1        2  0        2  1        2  2        3  0        3  1        3  2        3  3
 # jmin,jmax,maxlamb are            0          50         100
 # j and jp are          17          50
 # lam  B-lambda(j,jp)  angle
#   33      6.2523     11.0395
#   34      0.0335     19.4374
#   35      2.8177     25.3936
#   36      0.0250     30.3869
#   37      1.9009     34.8408
#   38      0.0217     38.9473
#   39      1.3355     42.8131
#   40      0.0168     46.5049
#   41      0.8519     50.0680
#   42      0.0119     53.5350
#   43      0.4785     56.9307
#   44      0.0079     60.2747
#   45      0.2390     63.5831
#   46      0.0049     66.8696
#   47      0.1072     70.1464
#   48      0.0030     73.4245
#   49      0.0542     76.7142
#   50      0.0017     80.0258
#   51      0.0383     83.3693
#   52      0.0008     86.7552
#   53      0.0243     90.1946
#   54      0.0003     93.6997
#   55      0.0098     97.2842
#   56      0.0001    100.9636
#   57      0.0022    104.7566
#   58      0.0000    108.6855
#   59      0.0003    112.7782
#   60      0.0000    117.0706
#   61      0.0001    121.6106
#   62      0.0000    126.4650
#   63      0.0001    131.7323
#   64      0.0000    137.5700
#   65      0.0000    144.2610
#   66      0.0000    152.4246
#   67      0.0000    164.2068
   0    1.74000E+01    1.0000000000000000
   1    1.47369E+01    0.8469472419596995
   2    1.07970E+01    0.6205169135347066
   3    7.19691E+00    0.4136146725585422
   4    4.77052E+00    0.2741670471963086
   5    3.49484E+00    0.2008522589014782
   6    2.96015E+00    0.1701234396133780
   7    2.73724E+00    0.1573122595548149
   8    2.53787E+00    0.1458542138279041
   9    2.27524E+00    0.1307606649513221
  10    2.00815E+00    0.1154107264369020
  11    1.79939E+00    0.1034129855226504
  12    1.64576E+00    0.0945839054140198
  13    1.51873E+00    0.0872833545992727
  14    1.41000E+00    0.0810343180024892
  15    1.32099E+00    0.0759187416688857
  16    1.24568E+00    0.0715907897927303
  17    1.17559E+00    0.0675626171538330
  18    1.10962E+00    0.0637709456437756
  19    1.05009E+00    0.0603500917302321
  20    9.98011E-01    0.0573568663764224
  21    9.51766E-01    0.0546990701832236
  22    9.10230E-01    0.0523119438967673
  23    8.72402E-01    0.0501379439225461
  24    8.38185E-01    0.0481714309020853
  25    8.06495E-01    0.0463502169246339
  26    7.76722E-01    0.0446390845385059
  27    7.46974E-01    0.0429294576369728
  28    7.14892E-01    0.0410856717889460
  29    6.77745E-01    0.0389507913353219
  30    6.33540E-01    0.0364102726556629
  31    5.67656E-01    0.0326238406120850
  32    5.24336E-01    0.0301342139673507
  33    3.94707E-01    0.0226842641456866
  34    3.26814E-01    0.0187823704540610
