  # July 4, 2014 12:22:22
 # jmin,jmax    0   50
 # Eau     0.00200000
 # r0,ra,rb,rdel,tol,Bau,mu   3.5000  25.0000  25.0000   4.0000  1.0000E-03  3.0130E-07  6.8548E+03
 # parity bigJ  0  0        1  0        1  1        2  0        2  1        2  2        3  0        3  1        3  2        3  3
 # jmin,jmax,maxlamb are            0          50         100
 # j and jp are          22          45
 # lam  B-lambda(j,jp)  angle
#   23     18.6308      8.5731
#   24      0.9903     15.1212
#   25      7.9327     19.7885
#   26      0.4870     23.7169
#   27      5.2062     27.2319
#   28      0.3269     30.4803
#   29      3.8750     33.5434
#   30      0.2266     36.4713
#   31      2.7887     39.2978
#   32      0.1523     42.0469
#   33      1.8548     44.7364
#   34      0.1029     47.3801
#   35      1.2569     49.9892
#   36      0.0694     52.5725
#   37      0.9987     55.1378
#   38      0.0458     57.6917
#   39      0.8305     60.2400
#   40      0.0297     62.7881
#   41      0.5771     65.3407
#   42      0.0187     67.9025
#   43      0.3556     70.4780
#   44      0.0114     73.0716
#   45      0.2517     75.6877
#   46      0.0070     78.3309
#   47      0.1765     81.0057
#   48      0.0043     83.7172
#   49      0.1000     86.4708
#   50      0.0026     89.2722
#   51      0.0612     92.1279
#   52      0.0014     95.0451
#   53      0.0429     98.0320
#   54      0.0005    101.0981
#   55      0.0212    104.2545
#   56      0.0001    107.5145
#   57      0.0056    110.8941
#   58      0.0000    114.4132
#   59      0.0007    118.0968
#   60      0.0000    121.9777
#   61      0.0001    126.0997
#   62      0.0000    130.5244
#   63      0.0001    135.3432
#   64      0.0000    140.7022
#   65      0.0001    146.8640
#   66      0.0000    154.4042
#   67      0.0001    165.3141
   0    4.07278E+01    1.0000000000000000
   1    3.44266E+01    0.8452867658226819
   2    2.56040E+01    0.6286627791988049
   3    1.80909E+01    0.4441913875783514
   4    1.31441E+01    0.3227302444470989
   5    1.01293E+01    0.2487083851120174
   6    8.20855E+00    0.2015467860083723
   7    6.91115E+00    0.1696913675664870
   8    6.00911E+00    0.1475432923465733
   9    5.39392E+00    0.1324383779087053
  10    4.96395E+00    0.1218811269102668
  11    4.57834E+00    0.1124132091997380
  12    4.15524E+00    0.1020248672244623
  13    3.71072E+00    0.0911103680762175
  14    3.30083E+00    0.0810460782015305
  15    2.98570E+00    0.0733087388797730
  16    2.79972E+00    0.0687422312940884
  17    2.69531E+00    0.0661786545594434
  18    2.58178E+00    0.0633910611413185
  19    2.42813E+00    0.0596185627255083
  20    2.27645E+00    0.0558943016220191
  21    2.15973E+00    0.0530285289141862
  22    2.06711E+00    0.0507544118791355
  23    1.97691E+00    0.0485397307900058
  24    1.88617E+00    0.0463117722695652
  25    1.80138E+00    0.0442298281434421
  26    1.72598E+00    0.0423784233375366
  27    1.65794E+00    0.0407078908975497
  28    1.59576E+00    0.0391810419868807
  29    1.53884E+00    0.0377835383860786
  30    1.48680E+00    0.0365059219164634
  31    1.44083E+00    0.0353770113863489
  32    1.40074E+00    0.0343927372231119
  33    1.36152E+00    0.0334298894823467
  34    1.34063E+00    0.0329169381958696
  35    1.29109E+00    0.0317004350879370
  36    1.29766E+00    0.0318618081516117
  37    1.22615E+00    0.0301059786464895
  38    1.23345E+00    0.0302851526317989
  39    1.15087E+00    0.0282576178657126
  40    1.16484E+00    0.0286006440642782
  41    9.16043E-01    0.0224918589903028
  42    9.76353E-01    0.0239726639212272
  43    6.86631E-01    0.0168590300765419
  44    1.21527E+00    0.0298389532885520
