  # July 4, 2014 12:22:22
 # jmin,jmax    0   50
 # Eau     0.00200000
 # r0,ra,rb,rdel,tol,Bau,mu   3.5000  25.0000  25.0000   4.0000  1.0000E-03  3.0130E-07  6.8548E+03
 # parity bigJ  0  0        1  0        1  1        2  0        2  1        2  2        3  0        3  1        3  2        3  3
 # jmin,jmax,maxlamb are            0          50         100
 # j and jp are          28          37
 # lam  B-lambda(j,jp)  angle
#    9     95.0259      5.2548
#   10      3.6218      9.4468
#   11     38.2171     12.5403
#   12      2.1639     15.2227
#   13     23.0414     17.6841
#   14      1.6092     20.0083
#   15     15.4721     22.2403
#   16      1.1865     24.4074
#   17     10.5151     26.5275
#   18      0.8492     28.6130
#   19      7.4603     30.6731
#   20      0.5904     32.7145
#   21      5.3894     34.7427
#   22      0.4371     36.7618
#   23      3.9108     38.7756
#   24      0.3431     40.7870
#   25      2.9384     42.7987
#   26      0.2546     44.8129
#   27      2.2793     46.8318
#   28      0.1857     48.8572
#   29      1.8698     50.8911
#   30      0.1421     52.9351
#   31      1.5094     54.9909
#   32      0.1091     57.0602
#   33      1.2106     59.1446
#   34      0.0832     61.2458
#   35      1.0057     63.3656
#   36      0.0632     65.5056
#   37      0.8534     67.6678
#   38      0.0468     69.8541
#   39      0.7384     72.0666
#   40      0.0329     74.3075
#   41      0.5991     76.5791
#   42      0.0218     78.8840
#   43      0.4118     81.2252
#   44      0.0142     83.6056
#   45      0.2600     86.0287
#   46      0.0092     88.4984
#   47      0.1773     91.0189
#   48      0.0057     93.5951
#   49      0.1151     96.2326
#   50      0.0034     98.9376
#   51      0.0711    101.7177
#   52      0.0019    104.5815
#   53      0.0523    107.5393
#   54      0.0008    110.6035
#   55      0.0334    113.7892
#   56      0.0002    117.1153
#   57      0.0125    120.6059
#   58      0.0000    124.2921
#   59      0.0023    128.2161
#   60      0.0000    132.4374
#   61      0.0002    137.0437
#   62      0.0000    142.1761
#   63      0.0001    148.0880
#   64      0.0000    155.3344
#   65      0.0002    165.8343
   0    9.39359E+01    1.0000000000000000
   1    8.21132E+01    0.8741409854895063
   2    6.62037E+01    0.7047752190267320
   3    5.29134E+01    0.5632927268064307
   4    4.33489E+01    0.4614735099320055
   5    3.60002E+01    0.3832418532671097
   6    2.99523E+01    0.3188590231064140
   7    2.51201E+01    0.2674180087111839
   8    2.15532E+01    0.2294458470607321
   9    1.89817E+01    0.2020704639632439
  10    1.69462E+01    0.1804016882194076
  11    1.52401E+01    0.1622394327394071
  12    1.38857E+01    0.1478214345793844
  13    1.28255E+01    0.1365343352761499
  14    1.19248E+01    0.1269466431774454
  15    1.10953E+01    0.1181157524264421
  16    1.03291E+01    0.1099591865010632
  17    9.67573E+00    0.1030035744116762
  18    9.14533E+00    0.0973571814020189
  19    8.66855E+00    0.0922816133539483
  20    8.20387E+00    0.0873348145097500
  21    7.77707E+00    0.0827912756434614
  22    7.40138E+00    0.0787918990489044
  23    7.05520E+00    0.0751065764754071
  24    6.73453E+00    0.0716928431811687
  25    6.45324E+00    0.0686983518634161
  26    6.20919E+00    0.0661003329183145
  27    5.98517E+00    0.0637154615637452
  28    5.77538E+00    0.0614821211831390
  29    5.57964E+00    0.0593984546441107
  30    5.41180E+00    0.0576116819619062
  31    5.24884E+00    0.0558768727716246
  32    5.11708E+00    0.0544742367756684
  33    4.95317E+00    0.0527293120357756
  34    4.83706E+00    0.0514932083719137
  35    4.66068E+00    0.0496155597291179
  36    4.56568E+00    0.0486042444168052
  37    4.39798E+00    0.0468189318471858
  38    4.32562E+00    0.0460486297703891
  39    4.16541E+00    0.0443431566758418
  40    4.12235E+00    0.0438847315221095
  41    3.94076E+00    0.0419516047875831
  42    3.94716E+00    0.0420197345037876
  43    3.74215E+00    0.0398373000710632
  44    3.79806E+00    0.0404324638981439
  45    3.57594E+00    0.0380678916255869
  46    3.70903E+00    0.0394847538739052
  47    3.34399E+00    0.0355986470246288
  48    3.64472E+00    0.0388001285121452
  49    3.06705E+00    0.0326504612452634
  50    3.57455E+00    0.0380530887748793
  51    2.78103E+00    0.0296055897305122
  52    3.46126E+00    0.0368471111614927
  53    2.48255E+00    0.0264281586452211
  54    3.52029E+00    0.0374754286345728
  55    2.00583E+00    0.0213531587241798
  56    4.00274E+00    0.0426114037872807
