  # July 4, 2014 12:22:22
 # jmin,jmax    0   50
 # Eau     0.00200000
 # r0,ra,rb,rdel,tol,Bau,mu   3.5000  25.0000  25.0000   4.0000  1.0000E-03  3.0130E-07  6.8548E+03
 # parity bigJ  0  0        1  0        1  1        2  0        2  1        2  2        3  0        3  1        3  2        3  3
 # jmin,jmax,maxlamb are            0          50         100
 # j and jp are          27          42
 # lam  B-lambda(j,jp)  angle
#   15     38.8332      6.4847
#   16      3.3327     11.5045
#   17     15.8618     15.1247
#   18      1.7868     18.2031
#   19      9.8102     20.9817
#   20      1.1597     23.5691
#   21      6.6105     26.0245
#   22      0.8224     28.3843
#   23      4.9505     30.6728
#   24      0.6131     32.9068
#   25      3.5389     35.0990
#   26      0.4927     37.2588
#   27      2.6586     39.3939
#   28      0.3993     41.5101
#   29      2.2687     43.6126
#   30      0.3023     45.7056
#   31      1.8242     47.7927
#   32      0.2142     49.8771
#   33      1.4080     51.9618
#   34      0.1506     54.0493
#   35      1.1154     56.1420
#   36      0.1082     58.2424
#   37      0.8803     60.3526
#   38      0.0742     62.4747
#   39      0.6990     64.6109
#   40      0.0446     66.7633
#   41      0.5303     68.9340
#   42      0.0247     71.1254
#   43      0.3575     73.3396
#   44      0.0149     75.5791
#   45      0.2371     77.8465
#   46      0.0096     80.1445
#   47      0.1598     82.4761
#   48      0.0060     84.8444
#   49      0.0952     87.2530
#   50      0.0035     89.7058
#   51      0.0605     92.2071
#   52      0.0018     94.7618
#   53      0.0439     97.3755
#   54      0.0007    100.0546
#   55      0.0229    102.8063
#   56      0.0002    105.6394
#   57      0.0063    108.5640
#   58      0.0000    111.5924
#   59      0.0008    114.7395
#   60      0.0000    118.0241
#   61      0.0001    121.4697
#   62      0.0000    125.1072
#   63      0.0001    128.9782
#   64      0.0000    133.1410
#   65      0.0001    137.6824
#   66      0.0000    142.7412
#   67      0.0001    148.5667
#   68      0.0000    155.7056
#   69      0.0001    166.0473
   0    5.95184E+01    1.0000000000000000
   1    5.14133E+01    0.8638233808088547
   2    3.98839E+01    0.6701101939531706
   3    2.98435E+01    0.5014162529983393
   4    2.30537E+01    0.3873374452495723
   5    1.87194E+01    0.3145154121239706
   6    1.56524E+01    0.2629836197383639
   7    1.32333E+01    0.2223395571899505
   8    1.12733E+01    0.1894088840282550
   9    9.74037E+00    0.1636531708545692
  10    8.57713E+00    0.1441090400475865
  11    7.65468E+00    0.1286104762420842
  12    6.88800E+00    0.1157290145147104
  13    6.27344E+00    0.1054034478154511
  14    5.79057E+00    0.0972905162772557
  15    5.37653E+00    0.0903340150997121
  16    4.99122E+00    0.0838602456319052
  17    4.62510E+00    0.0777087315209041
  18    4.28215E+00    0.0719467728048674
  19    3.98859E+00    0.0670144857735584
  20    3.77003E+00    0.0633422821120231
  21    3.60713E+00    0.0606053799855947
  22    3.45939E+00    0.0581230007870053
  23    3.31058E+00    0.0556228484495916
  24    3.16288E+00    0.0531412112097728
  25    3.00970E+00    0.0505676109291906
  26    2.84789E+00    0.0478489021648938
  27    2.69283E+00    0.0452436534328540
  28    2.56536E+00    0.0431020365464995
  29    2.46982E+00    0.0414967443720079
  30    2.39562E+00    0.0402500456673146
  31    2.32973E+00    0.0391430305528928
  32    2.26573E+00    0.0380677378206009
  33    2.20131E+00    0.0369853882566336
  34    2.13669E+00    0.0358997461737444
  35    2.07380E+00    0.0348430734630569
  36    2.01061E+00    0.0337814098355072
  37    1.94858E+00    0.0327391050832827
  38    1.88904E+00    0.0317387396899079
  39    1.81458E+00    0.0304877772828068
  40    1.76779E+00    0.0297015774312099
  41    1.67113E+00    0.0280775553757699
  42    1.64170E+00    0.0275830083210634
  43    1.54823E+00    0.0260125716722589
  44    1.54254E+00    0.0259169725933261
  45    1.45875E+00    0.0245092822652073
  46    1.52445E+00    0.0256130248322327
  47    1.40392E+00    0.0235879522639694
  48    1.48593E+00    0.0249658970256761
  49    1.25287E+00    0.0210501349177509
  50    1.41901E+00    0.0238415771607749
  51    9.82820E-01    0.0165128959347442
  52    1.46727E+00    0.0246524229495605
  53    7.72330E-01    0.0129763376248352
  54    1.96194E+00    0.0329636171329207
