  # July 4, 2014 12:22:22
 # jmin,jmax    0   50
 # Eau     0.00200000
 # r0,ra,rb,rdel,tol,Bau,mu   3.5000  25.0000  25.0000   4.0000  1.0000E-03  3.0130E-07  6.8548E+03
 # parity bigJ  0  0        1  0        1  1        2  0        2  1        2  2        3  0        3  1        3  2        3  3
 # jmin,jmax,maxlamb are            0          50         100
 # j and jp are          30          40
 # lam  B-lambda(j,jp)  angle
#   10     76.6020      5.1523
#   11      8.6861      9.2299
#   12     22.9117     12.2217
#   13      3.4547     14.8031
#   14     11.4053     17.1622
#   15      2.1725     19.3819
#   16      6.9631     21.5071
#   17      1.4782     23.5651
#   18      4.8675     25.5736
#   19      1.0579     27.5451
#   20      3.7043     29.4887
#   21      0.7640     31.4113
#   22      2.8300     33.3180
#   23      0.5740     35.2133
#   24      2.2869     37.1006
#   25      0.4585     38.9828
#   26      1.9474     40.8625
#   27      0.3860     42.7419
#   28      1.6292     44.6228
#   29      0.3187     46.5071
#   30      1.2264     48.3964
#   31      0.2282     50.2923
#   32      0.8860     52.1961
#   33      0.1332     54.1094
#   34      0.6312     56.0334
#   35      0.0738     57.9696
#   36      0.4300     59.9193
#   37      0.0504     61.8840
#   38      0.3258     63.8649
#   39      0.0387     65.8636
#   40      0.2718     67.8816
#   41      0.0289     69.9206
#   42      0.2311     71.9821
#   43      0.0205     74.0680
#   44      0.1867     76.1802
#   45      0.0139     78.3209
#   46      0.1323     80.4921
#   47      0.0092     82.6964
#   48      0.1086     84.9365
#   49      0.0055     87.2153
#   50      0.0946     89.5361
#   51      0.0026     91.9025
#   52      0.0550     94.3187
#   53      0.0010     96.7894
#   54      0.0198     99.3198
#   55      0.0003    101.9161
#   56      0.0068    104.5855
#   57      0.0001    107.3362
#   58      0.0026    110.1783
#   59      0.0000    113.1236
#   60      0.0005    116.1868
#   61      0.0000    119.3861
#   62      0.0001    122.7446
#   63      0.0000    126.2925
#   64      0.0001    130.0705
#   65      0.0000    134.1358
#   66      0.0001    138.5734
#   67      0.0000    143.5191
#   68      0.0000    149.2175
#   69      0.0000    156.2039
#   70      0.0000    166.3288
   0    6.34629E+01    1.0000000000000000
   1    5.74214E+01    0.9048020863639026
   2    4.86166E+01    0.7660636027203561
   3    4.04458E+01    0.6373139409148278
   4    3.41653E+01    0.5383500009906892
   5    2.94847E+01    0.4645980099374505
   6    2.59639E+01    0.4091194455193532
   7    2.32911E+01    0.3670030952268348
   8    2.10502E+01    0.3316922065767309
   9    1.89044E+01    0.2978813513942450
  10    1.68375E+01    0.2653121173419291
  11    1.49935E+01    0.2362558235002538
  12    1.34392E+01    0.2117649111672665
  13    1.21567E+01    0.1915557444155668
  14    1.11003E+01    0.1749096472085050
  15    1.01813E+01    0.1604288523758770
  16    9.30566E+00    0.1466315671614514
  17    8.46696E+00    0.1334158283994619
  18    7.72583E+00    0.1217377826591061
  19    7.09873E+00    0.1118563995387961
  20    6.54988E+00    0.1032080637427836
  21    6.06585E+00    0.0955810809334423
  22    5.65639E+00    0.0891291224856889
  23    5.30357E+00    0.0835696446880643
  24    4.97567E+00    0.0784027657123462
  25    4.66560E+00    0.0735168947926600
  26    4.38142E+00    0.0690391320075859
  27    4.12059E+00    0.0649291667481719
  28    3.87989E+00    0.0611363469172567
  29    3.66481E+00    0.0577472505489148
  30    3.47923E+00    0.0548230444998753
  31    3.31371E+00    0.0522148724934217
  32    3.15745E+00    0.0497526610424990
  33    3.00851E+00    0.0474057497936543
  34    2.87055E+00    0.0452319234088709
  35    2.74539E+00    0.0432596906742051
  36    2.62891E+00    0.0414243984642275
  37    2.51562E+00    0.0396392260618601
  38    2.40687E+00    0.0379255624525150
  39    2.29538E+00    0.0361688498203756
  40    2.19368E+00    0.0345663274052708
  41    2.09117E+00    0.0329511133089658
  42    1.99673E+00    0.0314629447031951
  43    1.90547E+00    0.0300249894441723
  44    1.83073E+00    0.0288472593872621
  45    1.71860E+00    0.0270803726889623
  46    1.69116E+00    0.0266480717565677
  47    1.54169E+00    0.0242927377662812
  48    1.53468E+00    0.0241823826278984
  49    1.37474E+00    0.0216621294108700
  50    1.39590E+00    0.0219956000959312
  51    1.22316E+00    0.0192736751697585
  52    1.28018E+00    0.0201721026906022
  53    1.05554E+00    0.0166323503254952
  54    1.20526E+00    0.0189916305276065
  55    9.77496E-01    0.0154026359349454
  56    1.17989E+00    0.0185918133070498
  57    8.66797E-01    0.0136583257925421
  58    1.19409E+00    0.0188156175443125
  59    6.72519E-01    0.0105970406044926
  60    1.78704E+00    0.0281587629169368
