  # July 4, 2014 12:22:22
 # jmin,jmax    0   50
 # Eau     0.00200000
 # r0,ra,rb,rdel,tol,Bau,mu   3.5000  25.0000  25.0000   4.0000  1.0000E-03  3.0130E-07  6.8548E+03
 # parity bigJ  0  0        1  0        1  1        2  0        2  1        2  2        3  0        3  1        3  2        3  3
 # jmin,jmax,maxlamb are            0          50         100
 # j and jp are          17          38
 # lam  B-lambda(j,jp)  angle
#   21     16.4158     10.0914
#   22      0.3441     17.8504
#   23      6.6257     23.4070
#   24      0.2657     28.1073
#   25      4.2459     32.3342
#   26      0.1878     36.2607
#   27      2.9720     39.9826
#   28      0.1314     43.5593
#   29      2.2208     47.0314
#   30      0.0926     50.4279
#   31      1.6918     53.7710
#   32      0.0641     57.0781
#   33      1.2933     60.3637
#   34      0.0441     63.6404
#   35      1.0433     66.9191
#   36      0.0312     70.2102
#   37      0.8759     73.5232
#   38      0.0223     76.8678
#   39      0.7563     80.2537
#   40      0.0157     83.6912
#   41      0.6388     87.1912
#   42      0.0105     90.7658
#   43      0.4790     94.4287
#   44      0.0066     98.1958
#   45      0.3180    102.0860
#   46      0.0041    106.1223
#   47      0.2177    110.3333
#   48      0.0025    114.7563
#   49      0.1577    119.4407
#   50      0.0014    124.4558
#   51      0.1094    129.9040
#   52      0.0007    135.9490
#   53      0.0918    142.8848
#   54      0.0002    151.3557
#   55      0.1204    163.5941
   0    4.20292E+01    1.0000000000000000
   1    2.96686E+01    0.7059043724994617
   2    1.95789E+01    0.4658397258132063
   3    1.37145E+01    0.3263080243473933
   4    1.09338E+01    0.2601477388262783
   5    8.46557E+00    0.2014212354565497
   6    7.00785E+00    0.1667377116084063
   7    5.93149E+00    0.1411279628461475
   8    5.42804E+00    0.1291492652144298
   9    4.68705E+00    0.1115189332947365
  10    4.23674E+00    0.1008047487483190
  11    3.73533E+00    0.0888746768709666
  12    3.53301E+00    0.0840609798951797
  13    3.13062E+00    0.0744867738439881
  14    2.97352E+00    0.0707488716473627
  15    2.65759E+00    0.0632320583283678
  16    2.55321E+00    0.0607485079617266
  17    2.26884E+00    0.0539823831344396
  18    2.22133E+00    0.0528520888188583
  19    1.98378E+00    0.0471999593435231
  20    1.99520E+00    0.0474717065386879
  21    1.76077E+00    0.0418940439414692
  22    1.81750E+00    0.0432438406100517
  23    1.56839E+00    0.0373165965174679
  24    1.67481E+00    0.0398486643051763
  25    1.40566E+00    0.0334448209446236
  26    1.56280E+00    0.0371836046728518
  27    1.24220E+00    0.0295555935445035
  28    1.49198E+00    0.0354985926102178
  29    1.04342E+00    0.0248259780135089
  30    1.50716E+00    0.0358597973819971
  31    8.41116E-01    0.0200126613144482
  32    1.59808E+00    0.0380231041504567
  33    6.32682E-01    0.0150533996635515
  34    1.92304E+00    0.0457549521369401
