  # July 4, 2014 12:22:22
 # jmin,jmax    0   50
 # Eau     0.00200000
 # r0,ra,rb,rdel,tol,Bau,mu   3.5000  25.0000  25.0000   4.0000  1.0000E-03  3.0130E-07  6.8548E+03
 # parity bigJ  0  0        1  0        1  1        2  0        2  1        2  2        3  0        3  1        3  2        3  3
 # jmin,jmax,maxlamb are            0          50         100
 # j and jp are          17          42
 # lam  B-lambda(j,jp)  angle
#   25     11.5933     10.4774
#   26      0.2178     18.4949
#   27      4.3453     24.2123
#   28      0.1992     29.0298
#   29      2.7648     33.3470
#   30      0.1580     37.3446
#   31      2.0393     41.1229
#   32      0.1160     44.7443
#   33      1.5147     48.2513
#   34      0.0814     51.6745
#   35      1.1647     55.0370
#   36      0.0553     58.3573
#   37      0.9184     61.6505
#   38      0.0352     64.9296
#   39      0.7613     68.2061
#   40      0.0204     71.4905
#   41      0.6292     74.7928
#   42      0.0115     78.1229
#   43      0.4460     81.4907
#   44      0.0072     84.9065
#   45      0.2789     88.3812
#   46      0.0047     91.9272
#   47      0.1858     95.5580
#   48      0.0029     99.2894
#   49      0.1226    103.1402
#   50      0.0016    107.1332
#   51      0.0776    111.2968
#   52      0.0008    115.6675
#   53      0.0592    120.2944
#   54      0.0003    125.2456
#   55      0.0422    130.6221
#   56      0.0001    136.5852
#   57      0.0199    143.4245
#   58      0.0000    151.7745
#   59      0.0069    163.8339
   0    3.04363E+01    1.0000000000000000
   1    2.28732E+01    0.7515111394462821
   2    1.49856E+01    0.4923584088208505
   3    1.03069E+01    0.3386383913165038
   4    8.05047E+00    0.2645021926482938
   5    6.73813E+00    0.2213844357350358
   6    5.62801E+00    0.1849110124603470
   7    4.73783E+00    0.1556636539464384
   8    4.18779E+00    0.1375919260748373
   9    3.75721E+00    0.1234450241017959
  10    3.35755E+00    0.1103140914773463
  11    2.94329E+00    0.0967032808577809
  12    2.61648E+00    0.0859657107945380
  13    2.36915E+00    0.0778394805387903
  14    2.20017E+00    0.0722877911482478
  15    1.98745E+00    0.0652986264742867
  16    1.84145E+00    0.0605015959069888
  17    1.68231E+00    0.0552730743749872
  18    1.60639E+00    0.0527787197995570
  19    1.45480E+00    0.0477982240807244
  20    1.39729E+00    0.0459085109070367
  21    1.25130E+00    0.0411121406989055
  22    1.22929E+00    0.0403887842022672
  23    1.09906E+00    0.0361100086650895
  24    1.10548E+00    0.0363211667281787
  25    9.87921E-01    0.0324586252845044
  26    1.02448E+00    0.0336597210337351
  27    8.93521E-01    0.0293570568981756
  28    9.80823E-01    0.0322254161919671
  29    7.97773E-01    0.0262112194790121
  30    9.39218E-01    0.0308584525003171
  31    7.11259E-01    0.0233687756582724
  32    9.95219E-01    0.0326984034329204
  33    4.74785E-01    0.0155993043284856
  34    1.35776E+00    0.0446099738601981
