  # July 4, 2014 12:22:22
 # jmin,jmax    0   50
 # Eau     0.00200000
 # r0,ra,rb,rdel,tol,Bau,mu   3.5000  25.0000  25.0000   4.0000  1.0000E-03  3.0130E-07  6.8548E+03
 # parity bigJ  0  0        1  0        1  1        2  0        2  1        2  2        3  0        3  1        3  2        3  3
 # jmin,jmax,maxlamb are            0          50         100
 # j and jp are          19          34
 # lam  B-lambda(j,jp)  angle
#   15     34.7675      8.5413
#   16      0.6604     15.1783
#   17     14.0643     19.9761
#   18      0.4276     24.0672
#   19      8.4627     27.7714
#   20      0.2973     31.2323
#   21      5.6040     34.5286
#   22      0.2113     37.7090
#   23      3.8954     40.8062
#   24      0.1523     43.8435
#   25      2.9795     46.8385
#   26      0.1130     49.8048
#   27      2.3090     52.7537
#   28      0.0868     55.6946
#   29      1.8329     58.6356
#   30      0.0676     61.5842
#   31      1.4978     64.5473
#   32      0.0526     67.5312
#   33      1.2098     70.5426
#   34      0.0411     73.5878
#   35      1.0047     76.6736
#   36      0.0319     79.8071
#   37      0.8612     82.9959
#   38      0.0238     86.2484
#   39      0.7542     89.5740
#   40      0.0169     92.9835
#   41      0.6613     96.4893
#   42      0.0112    100.1063
#   43      0.5304    103.8523
#   44      0.0070    107.7492
#   45      0.3677    111.8248
#   46      0.0042    116.1151
#   47      0.2512    120.6684
#   48      0.0025    125.5525
#   49      0.1943    130.8678
#   50      0.0013    136.7750
#   51      0.1564    143.5631
#   52      0.0005    151.8650
#   53      0.1914    163.8743
   0    6.53950E+01    1.0000000000000000
   1    4.75974E+01    0.7278440271190499
   2    3.39125E+01    0.5185796693070683
   3    2.54432E+01    0.3890695139470666
   4    2.03728E+01    0.3115351876650216
   5    1.58435E+01    0.2422738460936291
   6    1.32391E+01    0.2024483374006951
   7    1.10979E+01    0.1697055569388467
   8    9.70828E+00    0.1484560361903759
   9    8.28868E+00    0.1267479082305318
  10    7.64580E+00    0.1169171700325298
  11    6.81543E+00    0.1042194711102637
  12    6.38606E+00    0.0976535861760755
  13    5.75330E+00    0.0879776133130762
  14    5.50088E+00    0.0841177940078368
  15    4.95697E+00    0.0758004014839555
  16    4.78994E+00    0.0732462650339344
  17    4.31562E+00    0.0659931725838485
  18    4.22324E+00    0.0645804227203511
  19    3.80005E+00    0.0581091843194753
  20    3.80218E+00    0.0581416900463758
  21    3.42535E+00    0.0523793505301784
  22    3.47651E+00    0.0531617628271056
  23    3.08210E+00    0.0471305100840155
  24    3.17430E+00    0.0485404332544024
  25    2.74805E+00    0.0420223290910157
  26    2.93820E+00    0.0449300147441189
  27    2.44255E+00    0.0373507648388157
  28    2.77484E+00    0.0424320020999386
  29    2.16218E+00    0.0330633206294009
  30    2.65078E+00    0.0405348751361921
  31    1.90680E+00    0.0291581887594661
  32    2.50936E+00    0.0383722851828925
  33    1.61879E+00    0.0247540926780041
  34    2.36564E+00    0.0361746330952100
  35    1.34878E+00    0.0206250523130360
  36    2.35615E+00    0.0360295844436568
  37    1.02561E+00    0.0156833247103676
  38    2.91083E+00    0.0445115144929318
