  # July 4, 2014 12:22:22
 # jmin,jmax    0   50
 # Eau     0.00200000
 # r0,ra,rb,rdel,tol,Bau,mu   3.5000  25.0000  25.0000   4.0000  1.0000E-03  3.0130E-07  6.8548E+03
 # parity bigJ  0  0        1  0        1  1        2  0        2  1        2  2        3  0        3  1        3  2        3  3
 # jmin,jmax,maxlamb are            0          50         100
 # j and jp are          22          37
 # lam  B-lambda(j,jp)  angle
#   15     40.4378      7.6294
#   16      0.9851     13.5469
#   17     15.7694     17.8199
#   18      0.6428     21.4585
#   19      8.9993     24.7481
#   20      0.4028     27.8167
#   21      5.8470     30.7341
#   22      0.2866     33.5437
#   23      4.2465     36.2740
#   24      0.2239     38.9456
#   25      3.1745     41.5737
#   26      0.1683     44.1698
#   27      2.3632     46.7434
#   28      0.1215     49.3021
#   29      1.9060     51.8524
#   30      0.0913     54.4001
#   31      1.5533     56.9502
#   32      0.0713     59.5072
#   33      1.2357     62.0756
#   34      0.0558     64.6596
#   35      1.0202     67.2631
#   36      0.0430     69.8903
#   37      0.8679     72.5452
#   38      0.0326     75.2323
#   39      0.7507     77.9560
#   40      0.0237     80.7212
#   41      0.6275     83.5330
#   42      0.0159     86.3974
#   43      0.4578     89.3207
#   44      0.0102     92.3102
#   45      0.2945     95.3743
#   46      0.0064     98.5225
#   47      0.1989    101.7663
#   48      0.0040    105.1192
#   49      0.1381    108.5977
#   50      0.0023    112.2223
#   51      0.0886    116.0188
#   52      0.0013    120.0209
#   53      0.0656    124.2741
#   54      0.0006    128.8419
#   55      0.0507    133.8189
#   56      0.0002    139.3562
#   57      0.0281    145.7258
#   58      0.0000    153.5233
#   59      0.0118    164.8106
   0    6.37719E+01    1.0000000000000000
   1    5.13395E+01    0.8050492923468429
   2    3.78951E+01    0.5942280437469881
   3    2.90110E+01    0.4549186059196235
   4    2.35200E+01    0.3688148348633585
   5    1.93482E+01    0.3033968086960305
   6    1.59220E+01    0.2496702871379645
   7    1.34374E+01    0.2107095470344435
   8    1.17255E+01    0.1838655823449859
   9    1.02849E+01    0.1612756662816427
  10    9.06927E+00    0.1422141459239190
  11    8.08258E+00    0.1267420090657773
  12    7.38134E+00    0.1157458718539361
  13    6.76563E+00    0.1060910300636685
  14    6.22505E+00    0.0976142656153410
  15    5.73868E+00    0.0899875237302903
  16    5.42220E+00    0.0850248592411620
  17    5.09407E+00    0.0798794401502197
  18    4.85186E+00    0.0760814425868393
  19    4.55643E+00    0.0714488530838654
  20    4.35276E+00    0.0682550963337934
  21    4.05314E+00    0.0635568274708819
  22    3.87434E+00    0.0607530430481780
  23    3.61801E+00    0.0567335216602666
  24    3.50633E+00    0.0549823748451540
  25    3.28935E+00    0.0515798357235113
  26    3.20314E+00    0.0502280243052239
  27    2.98724E+00    0.0468425662137242
  28    2.92103E+00    0.0458043154395502
  29    2.69804E+00    0.0423076732329635
  30    2.67605E+00    0.0419627876002470
  31    2.43400E+00    0.0381672779637739
  32    2.45881E+00    0.0385563685787698
  33    2.19166E+00    0.0343671992938057
  34    2.25694E+00    0.0353908615506938
  35    1.94353E+00    0.0304763396496050
  36    2.09483E+00    0.0328487542443572
  37    1.65725E+00    0.0259871932551913
  38    2.02072E+00    0.0316866862655936
  39    1.41711E+00    0.0222214908414887
  40    2.02901E+00    0.0318166264530921
  41    1.19150E+00    0.0186837023334914
  42    2.02007E+00    0.0316765442926298
  43    9.06865E-01    0.0142204428913993
  44    2.48292E+00    0.0389343625630429
