  # July 4, 2014 12:22:22
 # jmin,jmax    0   50
 # Eau     0.00200000
 # r0,ra,rb,rdel,tol,Bau,mu   3.5000  25.0000  25.0000   4.0000  1.0000E-03  3.0130E-07  6.8548E+03
 # parity bigJ  0  0        1  0        1  1        2  0        2  1        2  2        3  0        3  1        3  2        3  3
 # jmin,jmax,maxlamb are            0          50         100
 # j and jp are          23          24
 # lam  B-lambda(j,jp)  angle
#    1    982.5321      2.3880
#    2      3.5383      5.3422
#    3    172.3835      7.9275
#    4      1.7180     10.4249
#    5     74.7049     12.8888
#    6      1.1860     15.3387
#    7     42.4824     17.7838
#    8      0.8401     20.2295
#    9     27.0332     22.6795
#   10      0.6473     25.1363
#   11     18.5310     27.6021
#   12      0.4864     30.0790
#   13     13.1560     32.5688
#   14      0.3606     35.0732
#   15      9.5566     37.5939
#   16      0.2803     40.1328
#   17      7.0575     42.6917
#   18      0.2267     45.2725
#   19      5.2813     47.8772
#   20      0.1837     50.5081
#   21      4.0647     53.1674
#   22      0.1469     55.8576
#   23      3.1048     58.5814
#   24      0.1163     61.3418
#   25      2.4712     64.1420
#   26      0.0917     66.9855
#   27      2.0003     69.8763
#   28      0.0719     72.8188
#   29      1.6500     75.8179
#   30      0.0562     78.8793
#   31      1.4108     82.0095
#   32      0.0436     85.2156
#   33      1.1895     88.5065
#   34      0.0334     91.8920
#   35      1.0211     95.3841
#   36      0.0250     98.9972
#   37      0.9142    102.7488
#   38      0.0182    106.6609
#   39      0.8406    110.7612
#   40      0.0126    115.0861
#   41      0.7917    119.6844
#   42      0.0080    124.6249
#   43      0.7401    130.0099
#   44      0.0044    136.0029
#   45      0.6676    142.8985
#   46      0.0020    151.3420
#   47      0.7904    163.5701
   0    1.89900E+02    1.0000000000000000
   1    1.55121E+02    0.8168549651339517
   2    1.34320E+02    0.7073194395135771
   3    1.15490E+02    0.6081608535013094
   4    1.03053E+02    0.5426715114164613
   5    9.19382E+01    0.4841404403927075
   6    8.50002E+01    0.4476056216591378
   7    7.78176E+01    0.4097824955790770
   8    7.35091E+01    0.3870939682179005
   9    6.83742E+01    0.3600540910750690
  10    6.52422E+01    0.3435613626564765
  11    6.11916E+01    0.3222311210360800
  12    5.88726E+01    0.3100194559181768
  13    5.55196E+01    0.2923625207075792
  14    5.37189E+01    0.2828803348159021
  15    5.07960E+01    0.2674884761470568
  16    4.94163E+01    0.2602232496702632
  17    4.68218E+01    0.2465607805077833
  18    4.57580E+01    0.2409588239704935
  19    4.34076E+01    0.2285815410277622
  20    4.26223E+01    0.2244461860598903
  21    4.04416E+01    0.2129627916870717
  22    3.98323E+01    0.2097542585751895
  23    3.77847E+01    0.1989719170574640
  24    3.73660E+01    0.1967669245375731
  25    3.54446E+01    0.1866487326678148
  26    3.51607E+01    0.1851542327152489
  27    3.32967E+01    0.1753382839515099
  28    3.31491E+01    0.1745610525397656
  29    3.13515E+01    0.1650950380652330
  30    3.13607E+01    0.1651436886214014
  31    2.96068E+01    0.1559074905623279
  32    2.97779E+01    0.1568086126443682
  33    2.79571E+01    0.1472201578103897
  34    2.83694E+01    0.1493912803905929
  35    2.64752E+01    0.1394168071179632
  36    2.71403E+01    0.1429188525958813
  37    2.50431E+01    0.1318754224135754
  38    2.60599E+01    0.1372295238583807
  39    2.36653E+01    0.1246199988122080
  40    2.52486E+01    0.1329573315227824
  41    2.22212E+01    0.1170152380595861
  42    2.49284E+01    0.1312715907479841
  43    2.05749E+01    0.1083463509362958
  44    2.59013E+01    0.1363947787632144
  45    1.79376E+01    0.0944581064447980
  46    3.31359E+01    0.1744915905594919
