  # July 4, 2014 12:22:22
 # jmin,jmax    0   50
 # Eau     0.00200000
 # r0,ra,rb,rdel,tol,Bau,mu   3.5000  25.0000  25.0000   4.0000  1.0000E-03  3.0130E-07  6.8548E+03
 # parity bigJ  0  0        1  0        1  1        2  0        2  1        2  2        3  0        3  1        3  2        3  3
 # jmin,jmax,maxlamb are            0          50         100
 # j and jp are          32          36
 # lam  B-lambda(j,jp)  angle
#    4    734.3798      3.3265
#    5     36.9038      6.2274
#    6    156.3729      8.4906
#    7     16.6001     10.5367
#    8     59.7106     12.4744
#    9      7.9258     14.3490
#   10     27.4893     16.1838
#   11      4.0195     17.9924
#   12     15.1454     19.7833
#   13      2.3325     21.5624
#   14      8.8314     23.3337
#   15      1.6735     25.1003
#   16      5.7727     26.8648
#   17      1.2969     28.6289
#   18      4.1033     30.3942
#   19      0.9701     32.1622
#   20      3.0393     33.9340
#   21      0.7282     35.7107
#   22      2.2679     37.4933
#   23      0.5629     39.2827
#   24      1.7724     41.0798
#   25      0.4090     42.8854
#   26      1.3991     44.7005
#   27      0.2489     46.5258
#   28      1.0738     48.3622
#   29      0.1325     50.2106
#   30      0.8660     52.0719
#   31      0.0854     53.9470
#   32      0.7864     55.8368
#   33      0.0697     57.7423
#   34      0.6549     59.6647
#   35      0.0561     61.6049
#   36      0.4461     63.5642
#   37      0.0446     65.5438
#   38      0.3249     67.5451
#   39      0.0355     69.5694
#   40      0.2712     71.6183
#   41      0.0274     73.6935
#   42      0.2283     75.7967
#   43      0.0200     77.9300
#   44      0.1911     80.0955
#   45      0.0138     82.2955
#   46      0.1383     84.5327
#   47      0.0092     86.8099
#   48      0.1072     89.1304
#   49      0.0056     91.4978
#   50      0.0984     93.9162
#   51      0.0027     96.3902
#   52      0.0651     98.9251
#   53      0.0010    101.5271
#   54      0.0259    104.2033
#   55      0.0004    106.9620
#   56      0.0086    109.8132
#   57      0.0001    112.7689
#   58      0.0034    115.8438
#   59      0.0000    119.0562
#   60      0.0008    122.4292
#   61      0.0000    125.9933
#   62      0.0001    129.7894
#   63      0.0000    133.8750
#   64      0.0001    138.3355
#   65      0.0000    143.3077
#   66      0.0001    149.0376
#   67      0.0000    156.0638
#   68      0.0001    166.2480
   0    1.91534E+02    1.0000000000000000
   1    1.83746E+02    0.9593428103851011
   2    1.72207E+02    0.8990952988916349
   3    1.60701E+02    0.8390240541997990
   4    1.50279E+02    0.7846085080895973
   5    1.40603E+02    0.7340920882938511
   6    1.31572E+02    0.6869376428830475
   7    1.23204E+02    0.6432479716987868
   8    1.15331E+02    0.6021476300496864
   9    1.07875E+02    0.5632175358030748
  10    1.00911E+02    0.5268604952571501
  11    9.44367E+01    0.4930558710481850
  12    8.83711E+01    0.4613870981037984
  13    8.27054E+01    0.4318063976996575
  14    7.74648E+01    0.4044450854408432
  15    7.26362E+01    0.3792350086128196
  16    6.82212E+01    0.3561842163080273
  17    6.42195E+01    0.3352910718299741
  18    6.05467E+01    0.3161153693230988
  19    5.71004E+01    0.2981220346798185
  20    5.38807E+01    0.2813121448820818
  21    5.09337E+01    0.2659258783267493
  22    4.82477E+01    0.2519020359597403
  23    4.57697E+01    0.2389644163098598
  24    4.34594E+01    0.2269024152908548
  25    4.12853E+01    0.2155510533881119
  26    3.92311E+01    0.2048263416360502
  27    3.73093E+01    0.1947924410289074
  28    3.55355E+01    0.1855312766870705
  29    3.38938E+01    0.1769603122949132
  30    3.23504E+01    0.1689019553902829
  31    3.08870E+01    0.1612613912274047
  32    2.95036E+01    0.1540389794349236
  33    2.81975E+01    0.1472198616220249
  34    2.69622E+01    0.1407699854866208
  35    2.57795E+01    0.1345949901727391
  36    2.46534E+01    0.1287157377989072
  37    2.35692E+01    0.1230553398653064
  38    2.25373E+01    0.1176677053427277
  39    2.15428E+01    0.1124755926192508
  40    2.05950E+01    0.1075270290689982
  41    1.96688E+01    0.1026910404004901
  42    1.88204E+01    0.0982616336868840
  43    1.79358E+01    0.0936432259248679
  44    1.72029E+01    0.0898168769176694
  45    1.63661E+01    0.0854475597924332
  46    1.57133E+01    0.0820392147701922
  47    1.49354E+01    0.0779779424785899
  48    1.43525E+01    0.0749345472595223
  49    1.35857E+01    0.0709312946809284
  50    1.30522E+01    0.0681458292692803
  51    1.22766E+01    0.0640964224801987
  52    1.18079E+01    0.0616492607101058
  53    1.09669E+01    0.0572582909961405
  54    1.05262E+01    0.0549573450110803
  55    9.70024E+00    0.0506451214072579
  56    9.27549E+00    0.0484275172611167
  57    8.30306E+00    0.0433504199256223
  58    8.11861E+00    0.0423873975435800
  59    6.95742E+00    0.0363248142873979
  60    7.00979E+00    0.0365982123660086
  61    5.63002E+00    0.0293944259688707
  62    5.87109E+00    0.0306530602592579
  63    4.02174E+00    0.0209975848540760
  64    5.05167E+00    0.0263748647321206
