  # July 4, 2014 12:22:22
 # jmin,jmax    0   50
 # Eau     0.00200000
 # r0,ra,rb,rdel,tol,Bau,mu   3.5000  25.0000  25.0000   4.0000  1.0000E-03  3.0130E-07  6.8548E+03
 # parity bigJ  0  0        1  0        1  1        2  0        2  1        2  2        3  0        3  1        3  2        3  3
 # jmin,jmax,maxlamb are            0          50         100
 # j and jp are          13          45
 # lam  B-lambda(j,jp)  angle
#   32      3.4346     13.0249
#   33      0.0153     22.9995
#   34      1.3938     30.1042
#   35      0.0141     36.0901
#   36      0.7243     41.4581
#   37      0.0120     46.4364
#   38      0.4591     51.1526
#   39      0.0101     55.6873
#   40      0.3680     60.0965
#   41      0.0081     64.4218
#   42      0.3147     68.6960
#   43      0.0060     72.9468
#   44      0.2363     77.1985
#   45      0.0042     81.4740
#   46      0.1481     85.7956
#   47      0.0026     90.1867
#   48      0.1157     94.6725
#   49      0.0015     99.2819
#   50      0.1110    104.0491
#   51      0.0007    109.0167
#   52      0.0761    114.2402
#   53      0.0003    119.7959
#   54      0.0330    125.7952
#   55      0.0001    132.4150
#   56      0.0126    139.9722
#   57      0.0000    149.1595
#   58      0.0085    162.3814
   0    1.09197E+01    1.0000000000000000
   1    7.76614E+00    0.7112071022738995
   2    5.04278E+00    0.4618071506130755
   3    3.69217E+00    0.3381217288874398
   4    2.87557E+00    0.2633387247016107
   5    2.24289E+00    0.2053994065328271
   6    1.84429E+00    0.1688958948448103
   7    1.46810E+00    0.1344457161943846
   8    1.22350E+00    0.1120457730763299
   9    1.13416E+00    0.1038635969978630
  10    1.08771E+00    0.0996104254481729
  11    9.71012E-01    0.0889232579487955
  12    8.90153E-01    0.0815183665612471
  13    8.14884E-01    0.0746254002377192
  14    7.67672E-01    0.0703018482508345
  15    6.85728E-01    0.0627975737168409
  16    6.47102E-01    0.0592602768375707
  17    5.65572E-01    0.0517938744078265
  18    5.51660E-01    0.0505198751458218
  19    4.46958E-01    0.0409314955096712
  20    4.73556E-01    0.0433673024787925
  21    3.24685E-01    0.0297339662898005
  22    4.18319E-01    0.0383087718797078
  23    2.34489E-01    0.0214740427401402
  24    3.61923E-01    0.0331441637706438
  25    2.04606E-01    0.0187374199275179
  26    5.03455E-01    0.0461053749781195
