  # July 4, 2014 12:22:22
 # jmin,jmax    0   50
 # Eau     0.00200000
 # r0,ra,rb,rdel,tol,Bau,mu   3.5000  25.0000  25.0000   4.0000  1.0000E-03  3.0130E-07  6.8548E+03
 # parity bigJ  0  0        1  0        1  1        2  0        2  1        2  2        3  0        3  1        3  2        3  3
 # jmin,jmax,maxlamb are            0          50         100
 # j and jp are          29          48
 # lam  B-lambda(j,jp)  angle
#   19     29.5136      6.5960
#   20      1.3910     11.6500
#   21     12.1427     15.2649
#   22      1.0883     18.3157
#   23      7.3186     21.0511
#   24      0.8738     23.5828
#   25      4.9741     25.9723
#   26      0.6529     28.2573
#   27      3.7630     30.4632
#   28      0.4788     32.6076
#   29      2.9059     34.7036
#   30      0.3478     36.7613
#   31      2.3198     38.7884
#   32      0.2432     40.7913
#   33      1.9327     42.7751
#   34      0.1613     44.7442
#   35      1.5325     46.7023
#   36      0.1004     48.6526
#   37      1.1861     50.5980
#   38      0.0554     52.5411
#   39      0.9347     54.4841
#   40      0.0265     56.4293
#   41      0.7435     58.3786
#   42      0.0141     60.3340
#   43      0.5823     62.2974
#   44      0.0097     64.2705
#   45      0.3917     66.2551
#   46      0.0065     68.2530
#   47      0.2076     70.2661
#   48      0.0040     72.2962
#   49      0.1070     74.3452
#   50      0.0025     76.4150
#   51      0.0643     78.5077
#   52      0.0012     80.6257
#   53      0.0314     82.7711
#   54      0.0004     84.9467
#   55      0.0091     87.1550
#   56      0.0001     89.3992
#   57      0.0014     91.6825
#   58      0.0000     94.0087
#   59      0.0002     96.3818
#   60      0.0000     98.8064
#   61      0.0001    101.2880
#   62      0.0000    103.8324
#   63      0.0001    106.4467
#   64      0.0000    109.1392
#   65      0.0001    111.9195
#   66      0.0000    114.7994
#   67      0.0000    117.7931
#   68      0.0000    120.9185
#   69      0.0000    124.1979
#   70      0.0000    127.6610
#   71      0.0000    131.3474
#   72      0.0000    135.3127
#   73      0.0000    139.6398
#   74      0.0000    144.4609
#   75      0.0000    150.0143
#   76      0.0000    156.8209
#   77      0.0000    166.6823
   0    4.84083E+01    1.0000000000000000
   1    4.25904E+01    0.8798163241372832
   2    3.36696E+01    0.6955340209055599
   3    2.50970E+01    0.5184441722830495
   4    1.89200E+01    0.3908409571835162
   5    1.51815E+01    0.3136128437094750
   6    1.28623E+01    0.2657040643540366
   7    1.10839E+01    0.2289668150233439
   8    9.55495E+00    0.1973823035363074
   9    8.31252E+00    0.1717167549953953
  10    7.37206E+00    0.1522890882350228
  11    6.64170E+00    0.1372015646513692
  12    6.01711E+00    0.1242990076117418
  13    5.46058E+00    0.1128024765951462
  14    4.99411E+00    0.1031663029776948
  15    4.64086E+00    0.0958691179012933
  16    4.37643E+00    0.0904066369857537
  17    4.13797E+00    0.0854806339859858
  18    3.88293E+00    0.0802120402402912
  19    3.62746E+00    0.0749347018521595
  20    3.41546E+00    0.0705551864891428
  21    3.25937E+00    0.0673307332920171
  22    3.12873E+00    0.0646320429024908
  23    2.99194E+00    0.0618063838707212
  24    2.84811E+00    0.0588351498663563
  25    2.71294E+00    0.0560428177105616
  26    2.59106E+00    0.0535251620713347
  27    2.47454E+00    0.0511181259325650
  28    2.35999E+00    0.0487518050597003
  29    2.25437E+00    0.0465698239970532
  30    2.16424E+00    0.0447080521280444
  31    2.08697E+00    0.0431118873029048
  32    2.01426E+00    0.0416097992010302
  33    1.94035E+00    0.0400829817652181
  34    1.86503E+00    0.0385270030202118
  35    1.79075E+00    0.0369927084110815
  36    1.71936E+00    0.0355178767708061
  37    1.65100E+00    0.0341056683602135
  38    1.58504E+00    0.0327431727787151
  39    1.52068E+00    0.0314136492761218
  40    1.45775E+00    0.0301135293759597
  41    1.39602E+00    0.0288383546630133
  42    1.33621E+00    0.0276029498977548
  43    1.27895E+00    0.0264200957988059
  44    1.22546E+00    0.0253150661751963
  45    1.17715E+00    0.0243170693403957
  46    1.13617E+00    0.0234704795696770
  47    1.10053E+00    0.0227343461580374
  48    1.07131E+00    0.0221306216282012
  49    1.05015E+00    0.0216936416764257
  50    1.01301E+00    0.0209263892249275
  51    9.65762E-01    0.0199503340835373
  52    9.64860E-01    0.0199317006982509
  53    9.05436E-01    0.0187041328114139
  54    9.21565E-01    0.0190373155912892
  55    8.66722E-01    0.0179044107423860
  56    1.06962E+00    0.0220957791860748
  57    6.90117E-01    0.0142561632412193
  58    1.51292E+00    0.0312533139595174
