  # July 4, 2014 12:22:22
 # jmin,jmax    0   50
 # Eau     0.00200000
 # r0,ra,rb,rdel,tol,Bau,mu   3.5000  25.0000  25.0000   4.0000  1.0000E-03  3.0130E-07  6.8548E+03
 # parity bigJ  0  0        1  0        1  1        2  0        2  1        2  2        3  0        3  1        3  2        3  3
 # jmin,jmax,maxlamb are            0          50         100
 # j and jp are          30          35
 # lam  B-lambda(j,jp)  angle
#    5    200.9460      3.8925
#    6      4.7621      7.1836
#    7     72.0172      9.7066
#    8      3.3371     11.9597
#    9     41.0421     14.0747
#   10      2.2975     16.1078
#   11     26.7296     18.0882
#   12      1.7710     20.0332
#   13     18.2855     21.9539
#   14      1.4099     23.8578
#   15     13.1335     25.7504
#   16      1.0935     27.6357
#   17      9.4792     29.5169
#   18      0.7898     31.3966
#   19      6.7652     33.2768
#   20      0.5751     35.1593
#   21      4.8996     37.0458
#   22      0.4288     38.9376
#   23      3.7051     40.8360
#   24      0.3185     42.7424
#   25      2.8560     44.6577
#   26      0.2403     46.5833
#   27      2.2237     48.5201
#   28      0.1873     50.4693
#   29      1.8344     52.4321
#   30      0.1448     54.4095
#   31      1.4942     56.4028
#   32      0.1110     58.4132
#   33      1.1996     60.4420
#   34      0.0853     62.4905
#   35      0.9984     64.5602
#   36      0.0649     66.6526
#   37      0.8498     68.7692
#   38      0.0484     70.9119
#   39      0.7361     73.0825
#   40      0.0345     75.2832
#   41      0.6000     77.5160
#   42      0.0230     79.7835
#   43      0.4154     82.0884
#   44      0.0148     84.4337
#   45      0.2622     86.8226
#   46      0.0096     89.2590
#   47      0.1785     91.7469
#   48      0.0060     94.2913
#   49      0.1168     96.8975
#   50      0.0036     99.5717
#   51      0.0722    102.3214
#   52      0.0020    105.1551
#   53      0.0530    108.0829
#   54      0.0009    111.1173
#   55      0.0344    114.2731
#   56      0.0003    117.5691
#   57      0.0132    121.0292
#   58      0.0000    124.6843
#   59      0.0025    128.5764
#   60      0.0000    132.7644
#   61      0.0003    137.3357
#   62      0.0000    142.4303
#   63      0.0001    148.2999
#   64      0.0000    155.4961
#   65      0.0002    165.9253
   0    1.20118E+02    1.0000000000000000
   1    1.07018E+02    0.8909407425718608
   2    8.91703E+01    0.7423548818530054
   3    7.38475E+01    0.6147904461541281
   4    6.23512E+01    0.5190817694013414
   5    5.32079E+01    0.4429629407529407
   6    4.55574E+01    0.3792717320961598
   7    3.93593E+01    0.3276718865145850
   8    3.46442E+01    0.2884178454973613
   9    3.10755E+01    0.2587076994686517
  10    2.81523E+01    0.2343720016491743
  11    2.56697E+01    0.2137037367563051
  12    2.36360E+01    0.1967730036831054
  13    2.19515E+01    0.1827493484091749
  14    2.04549E+01    0.1702894815127912
  15    1.90630E+01    0.1587021718744500
  16    1.77876E+01    0.1480841982893139
  17    1.66819E+01    0.1388791998622624
  18    1.57383E+01    0.1310236843291123
  19    1.48810E+01    0.1238865820381860
  20    1.40860E+01    0.1172677922114713
  21    1.33871E+01    0.1114491231816010
  22    1.27823E+01    0.1064143922039060
  23    1.22344E+01    0.1018530866047227
  24    1.17301E+01    0.0976547110477945
  25    1.12691E+01    0.0938165383065260
  26    1.08358E+01    0.0902096222932181
  27    1.04152E+01    0.0867080522092301
  28    1.00153E+01    0.0833791340946581
  29    9.64691E+00    0.0803118204463248
  30    9.32362E+00    0.0776204281562799
  31    9.01936E+00    0.0750874100728409
  32    8.75563E+00    0.0728917719692913
  33    8.47491E+00    0.0705547792528431
  34    8.25531E+00    0.0687265551975576
  35    7.99473E+00    0.0665571735619207
  36    7.82401E+00    0.0651359014299459
  37    7.58741E+00    0.0631662478926211
  38    7.44492E+00    0.0619799489758654
  39    7.21795E+00    0.0600904303044675
  40    7.10142E+00    0.0591202508900687
  41    6.86335E+00    0.0571382914860062
  42    6.79752E+00    0.0565902890985178
  43    6.54056E+00    0.0544510211347153
  44    6.52417E+00    0.0543145840346481
  45    6.25377E+00    0.0520634792618218
  46    6.29546E+00    0.0524105590285571
  47    5.95555E+00    0.0495807781673445
  48    6.16815E+00    0.0513507214941180
  49    5.68080E+00    0.0472934545839212
  50    6.08772E+00    0.0506810618956920
  51    5.42006E+00    0.0451226891762302
  52    6.02231E+00    0.0501365792460083
  53    5.24636E+00    0.0436766438895975
  54    5.99902E+00    0.0499426508752078
  55    4.97219E+00    0.0413941856877512
  56    6.03149E+00    0.0502129982553542
  57    4.63371E+00    0.0385762930496330
  58    6.33933E+00    0.0527757469295894
  59    4.19410E+00    0.0349164275869155
  60    7.93291E+00    0.0660425794577034
