  # July 4, 2014 12:22:22
 # jmin,jmax    0   50
 # Eau     0.00200000
 # r0,ra,rb,rdel,tol,Bau,mu   3.5000  25.0000  25.0000   4.0000  1.0000E-03  3.0130E-07  6.8548E+03
 # parity bigJ  0  0        1  0        1  1        2  0        2  1        2  2        3  0        3  1        3  2        3  3
 # jmin,jmax,maxlamb are            0          50         100
 # j and jp are          24          32
 # lam  B-lambda(j,jp)  angle
#    8    118.3246      5.7392
#    9      4.9616     10.3653
#   10     33.8996     13.8040
#   11      2.2766     16.8042
#   12     15.3242     19.5717
#   13      1.2862     22.1969
#   14      8.1911     24.7281
#   15      0.8200     27.1947
#   16      4.9229     29.6159
#   17      0.5183     32.0051
#   18      3.2086     34.3722
#   19      0.3220     36.7247
#   20      2.3334     39.0686
#   21      0.1959     41.4088
#   22      1.8186     43.7494
#   23      0.1217     46.0941
#   24      1.4461     48.4461
#   25      0.0858     50.8083
#   26      1.2427     53.1835
#   27      0.0700     55.5745
#   28      1.0686     57.9839
#   29      0.0593     60.4143
#   30      0.8632     62.8684
#   31      0.0488     65.3490
#   32      0.7203     67.8589
#   33      0.0392     70.4012
#   34      0.6513     72.9793
#   35      0.0309     75.5966
#   36      0.5014     78.2571
#   37      0.0243     80.9650
#   38      0.3373     83.7252
#   39      0.0191     86.5428
#   40      0.2689     89.4241
#   41      0.0146     92.3760
#   42      0.2306     95.4066
#   43      0.0107     98.5251
#   44      0.2004    101.7429
#   45      0.0075    105.0732
#   46      0.1739    108.5325
#   47      0.0049    112.1411
#   48      0.1339    115.9248
#   49      0.0030    119.9173
#   50      0.1220    124.1641
#   51      0.0016    128.7289
#   52      0.1251    133.7064
#   53      0.0006    139.2484
#   54      0.0951    145.6278
#   55      0.0002    153.4422
#   56      0.0662    164.7607
   0    8.18177E+01    1.0000000000000000
   1    7.12377E+01    0.8706883762798293
   2    6.14181E+01    0.7506693087712319
   3    5.34688E+01    0.6535107070736224
   4    4.72280E+01    0.5772347394083969
   5    4.18507E+01    0.5115114354988590
   6    3.69550E+01    0.4516752906323800
   7    3.24278E+01    0.3963415524476345
   8    2.86561E+01    0.3502431412992169
   9    2.53874E+01    0.3102920217599261
  10    2.28023E+01    0.2786960900192050
  11    2.03744E+01    0.2490223321106167
  12    1.84344E+01    0.2253102145555798
  13    1.67025E+01    0.2041430595425041
  14    1.53419E+01    0.1875127646655756
  15    1.39613E+01    0.1706388145995294
  16    1.29173E+01    0.1578788232947579
  17    1.18452E+01    0.1447752887045246
  18    1.11372E+01    0.1361225582998296
  19    1.02769E+01    0.1256074736514760
  20    9.68688E+00    0.1183958369959006
  21    8.93011E+00    0.1091463949976182
  22    8.52190E+00    0.1041571008391816
  23    7.92339E+00    0.0968419291256564
  24    7.59541E+00    0.0928333586609874
  25    7.05340E+00    0.0862086864097559
  26    6.77526E+00    0.0828091942885710
  27    6.29132E+00    0.0768943387236636
  28    6.06948E+00    0.0741829198210591
  29    5.61212E+00    0.0685929223889154
  30    5.45616E+00    0.0666867665836617
  31    5.01606E+00    0.0613077843195361
  32    4.91093E+00    0.0600228241981027
  33    4.47985E+00    0.0547540725927828
  34    4.41063E+00    0.0539080351459532
  35    3.97111E+00    0.0485361133156053
  36    3.95960E+00    0.0483954170997025
  37    3.51050E+00    0.0429063442662075
  38    3.50395E+00    0.0428262727712092
  39    3.06407E+00    0.0374499103920131
  40    3.11894E+00    0.0381206158981202
  41    2.54322E+00    0.0310839253377993
  42    2.81570E+00    0.0344143183522225
  43    2.08797E+00    0.0255197671271079
  44    2.48920E+00    0.0304237770979369
  45    1.57482E+00    0.0192478791438953
  46    2.25599E+00    0.0275734145250282
  47    1.00952E+00    0.0123386545632116
  48    2.39148E+00    0.0292293091175355
