  # July 4, 2014 12:22:22
 # jmin,jmax    0   50
 # Eau     0.00200000
 # r0,ra,rb,rdel,tol,Bau,mu   3.5000  25.0000  25.0000   4.0000  1.0000E-03  3.0130E-07  6.8548E+03
 # parity bigJ  0  0        1  0        1  1        2  0        2  1        2  2        3  0        3  1        3  2        3  3
 # jmin,jmax,maxlamb are            0          50         100
 # j and jp are          24          27
 # lam  B-lambda(j,jp)  angle
#    3    302.3975      3.8226
#    4      2.1838      7.3262
#    5     92.7900     10.1297
#    6      1.5548     12.7081
#    7     48.6311     15.1795
#    8      1.1059     17.5922
#    9     30.0004     19.9705
#   10      0.8351     22.3285
#   11     20.4775     24.6753
#   12      0.6036     27.0171
#   13     14.2783     29.3586
#   14      0.4483     31.7032
#   15     10.2520     34.0540
#   16      0.3700     36.4136
#   17      7.4805     38.7841
#   18      0.3046     41.1677
#   19      5.5639     43.5665
#   20      0.2389     45.9824
#   21      4.2536     48.4174
#   22      0.1849     50.8736
#   23      3.2293     53.3530
#   24      0.1463     55.8578
#   25      2.5646     58.3904
#   26      0.1163     60.9532
#   27      2.0510     63.5488
#   28      0.0917     66.1802
#   29      1.6793     68.8505
#   30      0.0722     71.5632
#   31      1.4194     74.3220
#   32      0.0564     77.1313
#   33      1.1778     79.9958
#   34      0.0436     82.9210
#   35      0.9962     85.9131
#   36      0.0333     88.9791
#   37      0.8724     92.1273
#   38      0.0247     95.3674
#   39      0.7782     98.7109
#   40      0.0176    102.1715
#   41      0.6984    105.7664
#   42      0.0116    109.5164
#   43      0.5919    113.4484
#   44      0.0071    117.5972
#   45      0.4413    122.0101
#   46      0.0041    126.7531
#   47      0.3129    131.9247
#   48      0.0022    137.6823
#   49      0.2649    144.3092
#   50      0.0010    152.4263
#   51      0.3331    164.1837
   0    1.45567E+02    1.0000000000000000
   1    1.18459E+02    0.8137772523569600
   2    9.69565E+01    0.6660605903115888
   3    8.05695E+01    0.5534870798877021
   4    6.85424E+01    0.4708644167018375
   5    5.82004E+01    0.3998181957424572
   6    5.14615E+01    0.3535245965875626
   7    4.53691E+01    0.3116711274856039
   8    4.10667E+01    0.2821152369213782
   9    3.71172E+01    0.2549837978216400
  10    3.43150E+01    0.2357331864840657
  11    3.13253E+01    0.2151949936760787
  12    2.93093E+01    0.2013455586516786
  13    2.70372E+01    0.1857370458217543
  14    2.55339E+01    0.1754099038834833
  15    2.36926E+01    0.1627607652165959
  16    2.25283E+01    0.1547623048019494
  17    2.09846E+01    0.1441572740601215
  18    2.01074E+01    0.1381314443749620
  19    1.87910E+01    0.1290881623536095
  20    1.81354E+01    0.1245844047337403
  21    1.69847E+01    0.1166793147206024
  22    1.65628E+01    0.1137812561697200
  23    1.55110E+01    0.1065555687655493
  24    1.52678E+01    0.1048848853292455
  25    1.42388E+01    0.0978162002991374
  26    1.41946E+01    0.0975123008267502
  27    1.31877E+01    0.0905956553849634
  28    1.33088E+01    0.0914271990650804
  29    1.22674E+01    0.0842729211586952
  30    1.24946E+01    0.0858342239963709
  31    1.14335E+01    0.0785445980213610
  32    1.17798E+01    0.0809234040670764
  33    1.07198E+01    0.0736413496026617
  34    1.11969E+01    0.0769194266887241
  35    1.01161E+01    0.0694941761029097
  36    1.07013E+01    0.0735145649531941
  37    9.58550E+00    0.0658493802615089
  38    1.03902E+01    0.0713771836509004
  39    9.13460E+00    0.0627518084353455
  40    1.01543E+01    0.0697568268463561
  41    8.66757E+00    0.0595435121954968
  42    1.00318E+01    0.0689150404756444
  43    8.19825E+00    0.0563193941137005
  44    1.01326E+01    0.0696076525584848
  45    7.59324E+00    0.0521631399324515
  46    1.08522E+01    0.0745511811393338
  47    6.67145E+00    0.0458307781813408
  48    1.46653E+01    0.1007456638921292
