  # July 4, 2014 12:22:22
 # jmin,jmax    0   50
 # Eau     0.00200000
 # r0,ra,rb,rdel,tol,Bau,mu   3.5000  25.0000  25.0000   4.0000  1.0000E-03  3.0130E-07  6.8548E+03
 # parity bigJ  0  0        1  0        1  1        2  0        2  1        2  2        3  0        3  1        3  2        3  3
 # jmin,jmax,maxlamb are            0          50         100
 # j and jp are          25          37
 # lam  B-lambda(j,jp)  angle
#   12     41.4011      6.4126
#   13      4.3967     11.4366
#   14     13.1283     15.0939
#   15      2.0737     18.2298
#   16      7.2193     21.0810
#   17      1.2440     23.7531
#   18      4.5174     26.3033
#   19      0.7895     28.7667
#   20      3.1728     31.1667
#   21      0.4744     33.5194
#   22      2.3385     35.8370
#   23      0.2589     38.1287
#   24      1.7326     40.4015
#   25      0.1418     42.6615
#   26      1.4063     44.9135
#   27      0.0935     47.1618
#   28      1.1570     49.4101
#   29      0.0744     51.6616
#   30      0.9007     53.9193
#   31      0.0611     56.1862
#   32      0.7684     58.4648
#   33      0.0488     60.7577
#   34      0.6709     63.0677
#   35      0.0390     65.3971
#   36      0.4763     67.7488
#   37      0.0316     70.1253
#   38      0.3269     72.5295
#   39      0.0252     74.9644
#   40      0.2685     77.4332
#   41      0.0193     79.9394
#   42      0.2271     82.4867
#   43      0.0143     85.0794
#   44      0.1950     87.7219
#   45      0.0100     90.4195
#   46      0.1511     93.1781
#   47      0.0067     96.0044
#   48      0.1120     98.9061
#   49      0.0042    101.8922
#   50      0.1046    104.9736
#   51      0.0022    108.1630
#   52      0.0841    111.4763
#   53      0.0009    114.9329
#   54      0.0416    118.5577
#   55      0.0003    122.3829
#   56      0.0146    126.4523
#   57      0.0001    130.8271
#   58      0.0061    135.5981
#   59      0.0000    140.9109
#   60      0.0023    147.0272
#   61      0.0000    154.5203
#   62      0.0006    165.3735
   0    4.73594E+01    1.0000000000000000
   1    4.05784E+01    0.8568187823291546
   2    3.25321E+01    0.6869185069436541
   3    2.64858E+01    0.5592518892997043
   4    2.20221E+01    0.4649988699155925
   5    1.85441E+01    0.3915605302509829
   6    1.58795E+01    0.3352982389570145
   7    1.36421E+01    0.2880550160553298
   8    1.17126E+01    0.2473121053969794
   9    1.01995E+01    0.2153647342489751
  10    9.02279E+00    0.1905173978124961
  11    8.06976E+00    0.1703940151262943
  12    7.28475E+00    0.1538184349821674
  13    6.54884E+00    0.1382796593386165
  14    5.86801E+00    0.1239037479478899
  15    5.33061E+00    0.1125563936347131
  16    4.90117E+00    0.1034887767319091
  17    4.48525E+00    0.0947066492389989
  18    4.10085E+00    0.0865900094835801
  19    3.76553E+00    0.0795095365692368
  20    3.49358E+00    0.0737674332511351
  21    3.26444E+00    0.0689289922894430
  22    3.06877E+00    0.0647973787365024
  23    2.85069E+00    0.0601925925941494
  24    2.63952E+00    0.0557338443265091
  25    2.44398E+00    0.0516050164465280
  26    2.30534E+00    0.0486776271363822
  27    2.17001E+00    0.0458200555071962
  28    2.07022E+00    0.0437129667510236
  29    1.93632E+00    0.0408856111980688
  30    1.87119E+00    0.0395104444945415
  31    1.73013E+00    0.0365318429204194
  32    1.71284E+00    0.0361668094809890
  33    1.55341E+00    0.0328003663254729
  34    1.57092E+00    0.0331701949462210
  35    1.40947E+00    0.0297612353121055
  36    1.43815E+00    0.0303666985954507
  37    1.28332E+00    0.0270975456476780
  38    1.32902E+00    0.0280624288214567
  39    1.14691E+00    0.0242171049073354
  40    1.22478E+00    0.0258613114343672
  41    1.01879E+00    0.0215119430299811
  42    1.13434E+00    0.0239517982132981
  43    8.68028E-01    0.0183285132287157
  44    1.05723E+00    0.0223235045636128
  45    8.29633E-01    0.0175177977171078
  46    1.03653E+00    0.0218864945345961
  47    6.55151E-01    0.0138336007980897
  48    1.13521E+00    0.0239701963876011
  49    4.96655E-01    0.0104869301311124
  50    1.53330E+00    0.0323759233568708
