  # July 4, 2014 12:22:22
 # jmin,jmax    0   50
 # Eau     0.00200000
 # r0,ra,rb,rdel,tol,Bau,mu   3.5000  25.0000  25.0000   4.0000  1.0000E-03  3.0130E-07  6.8548E+03
 # parity bigJ  0  0        1  0        1  1        2  0        2  1        2  2        3  0        3  1        3  2        3  3
 # jmin,jmax,maxlamb are            0          50         100
 # j and jp are          31          37
 # lam  B-lambda(j,jp)  angle
#    6    282.3180      4.0822
#    7     17.8127      7.4600
#    8     75.0084     10.0151
#    9      9.0169     12.2743
#   10     30.6782     14.3791
#   11      4.9346     16.3907
#   12     16.0627     18.3413
#   13      2.8141     20.2501
#   14      9.6839     22.1292
#   15      1.8105     23.9873
#   16      6.1244     25.8304
#   17      1.4027     27.6631
#   18      4.0620     29.4888
#   19      1.1033     31.3105
#   20      2.9505     33.1304
#   21      0.7618     34.9505
#   22      2.1108     36.7725
#   23      0.4686     38.5979
#   24      1.6558     40.4280
#   25      0.2794     42.2641
#   26      1.3755     44.1073
#   27      0.1705     45.9588
#   28      1.0864     47.8196
#   29      0.1114     49.6909
#   30      0.8741     51.5736
#   31      0.0859     53.4688
#   32      0.7885     55.3777
#   33      0.0709     57.3013
#   34      0.6537     59.2407
#   35      0.0561     61.1972
#   36      0.4445     63.1720
#   37      0.0442     65.1664
#   38      0.3242     67.1818
#   39      0.0350     69.2197
#   40      0.2712     71.2817
#   41      0.0270     73.3695
#   42      0.2294     75.4849
#   43      0.0198     77.6299
#   44      0.1913     79.8067
#   45      0.0137     82.0178
#   46      0.1378     84.2657
#   47      0.0091     86.5534
#   48      0.1073     88.8841
#   49      0.0055     91.2615
#   50      0.0982     93.6897
#   51      0.0027     96.1733
#   52      0.0644     98.7177
#   53      0.0010    101.3291
#   54      0.0255    104.0146
#   55      0.0004    106.7825
#   56      0.0085    109.6429
#   57      0.0001    112.6078
#   58      0.0034    115.6919
#   59      0.0000    118.9136
#   60      0.0008    122.2961
#   61      0.0000    125.8698
#   62      0.0001    129.6759
#   63      0.0000    133.7719
#   64      0.0001    138.2434
#   65      0.0000    143.2275
#   66      0.0001    148.9707
#   67      0.0000    156.0127
#   68      0.0001    166.2192
   0    1.20086E+02    1.0000000000000000
   1    1.13059E+02    0.9414859844162762
   2    1.02868E+02    0.8566247115471415
   3    9.30866E+01    0.7751695890886230
   4    8.46050E+01    0.7045394074897345
   5    7.69874E+01    0.6411049948372209
   6    7.00829E+01    0.5836082880710834
   7    6.39118E+01    0.5322186664394890
   8    5.83264E+01    0.4857071861258973
   9    5.32524E+01    0.4434539458557647
  10    4.87504E+01    0.4059640845598825
  11    4.47781E+01    0.3728847327529123
  12    4.11951E+01    0.3430479216694413
  13    3.79261E+01    0.3158261258598036
  14    3.49499E+01    0.2910418432258592
  15    3.22373E+01    0.2684532080800137
  16    2.98011E+01    0.2481658945538922
  17    2.76701E+01    0.2304202419337260
  18    2.57867E+01    0.2147358701439392
  19    2.40523E+01    0.2002930760310232
  20    2.24546E+01    0.1869886797154816
  21    2.10320E+01    0.1751417007052080
  22    1.97766E+01    0.1646874913734204
  23    1.86448E+01    0.1552624482874009
  24    1.76077E+01    0.1466260910681350
  25    1.66450E+01    0.1386092039418640
  26    1.57464E+01    0.1311262294735540
  27    1.49252E+01    0.1242880930135804
  28    1.41994E+01    0.1182441967681230
  29    1.35568E+01    0.1128929690572113
  30    1.29632E+01    0.1079496331383271
  31    1.23965E+01    0.1032309630592496
  32    1.18557E+01    0.0987274249608315
  33    1.13426E+01    0.0944546640429349
  34    1.08589E+01    0.0904262359560044
  35    1.03931E+01    0.0865478950564894
  36    9.95416E+00    0.0828922356716793
  37    9.52979E+00    0.0793583946294673
  38    9.13163E+00    0.0760426952771323
  39    8.74458E+00    0.0728196021052869
  40    8.37607E+00    0.0697508477604949
  41    7.99610E+00    0.0665866850281552
  42    7.66390E+00    0.0638203357288232
  43    7.25640E+00    0.0604269296735208
  44    6.97278E+00    0.0580651130375651
  45    6.55256E+00    0.0545657964055224
  46    6.29299E+00    0.0524042377259925
  47    5.88544E+00    0.0490103750883859
  48    5.66378E+00    0.0471645802142399
  49    5.24002E+00    0.0436357352701883
  50    5.04525E+00    0.0420138210762788
  51    4.58887E+00    0.0382133745614888
  52    4.46247E+00    0.0371607320602690
  53    3.95030E+00    0.0328957105575183
  54    3.86394E+00    0.0321765874890598
  55    3.42527E+00    0.0285236096254794
  56    3.46274E+00    0.0288356006202114
  57    2.84698E+00    0.0237079451675371
  58    3.12786E+00    0.0260469663645949
  59    2.31091E+00    0.0192438767618504
  60    2.85896E+00    0.0238077117547199
  61    1.58281E+00    0.0131806803400966
  62    2.63105E+00    0.0219097847005363
