  # July 4, 2014 12:22:22
 # jmin,jmax    0   50
 # Eau     0.00200000
 # r0,ra,rb,rdel,tol,Bau,mu   3.5000  25.0000  25.0000   4.0000  1.0000E-03  3.0130E-07  6.8548E+03
 # parity bigJ  0  0        1  0        1  1        2  0        2  1        2  2        3  0        3  1        3  2        3  3
 # jmin,jmax,maxlamb are            0          50         100
 # j and jp are          32          45
 # lam  B-lambda(j,jp)  angle
#   13     58.2234      5.3687
#   14      5.9043      9.5490
#   15     23.6612     12.5785
#   16      3.7279     15.1649
#   17     15.4736     17.5073
#   18      2.7259     19.6943
#   19     11.1917     21.7742
#   20      1.8540     23.7764
#   21      7.7086     25.7205
#   22      1.3775     27.6200
#   23      5.4539     29.4849
#   24      1.0976     31.3228
#   25      4.0221     33.1394
#   26      0.8407     34.9395
#   27      3.4134     36.7268
#   28      0.6053     38.5047
#   29      2.8605     40.2757
#   30      0.4053     42.0422
#   31      1.9955     43.8063
#   32      0.2565     45.5697
#   33      1.3722     47.3342
#   34      0.1559     49.1013
#   35      1.1745     50.8723
#   36      0.0918     52.6486
#   37      1.0920     54.4315
#   38      0.0561     56.2222
#   39      0.8480     58.0218
#   40      0.0378     59.8317
#   41      0.5124     61.6530
#   42      0.0267     63.4869
#   43      0.3042     65.3346
#   44      0.0182     67.1973
#   45      0.2103     69.0764
#   46      0.0113     70.9733
#   47      0.1275     72.8892
#   48      0.0067     74.8258
#   49      0.0726     76.7846
#   50      0.0038     78.7673
#   51      0.0527     80.7757
#   52      0.0017     82.8119
#   53      0.0318     84.8778
#   54      0.0005     86.9759
#   55      0.0106     89.1086
#   56      0.0001     91.2790
#   57      0.0017     93.4899
#   58      0.0000     95.7451
#   59      0.0002     98.0483
#   60      0.0000    100.4041
#   61      0.0000    102.8176
#   62      0.0000    105.2947
#   63      0.0001    107.8421
#   64      0.0000    110.4679
#   65      0.0001    113.1816
#   66      0.0000    115.9946
#   67      0.0000    118.9210
#   68      0.0000    121.9782
#   69      0.0000    125.1883
#   70      0.0000    128.5803
#   71      0.0000    132.1932
#   72      0.0000    136.0819
#   73      0.0000    140.3275
#   74      0.0000    145.0605
#   75      0.0000    150.5151
#   76      0.0000    157.2039
#   77      0.0000    166.8984
   0    7.46213E+01    1.0000000000000000
   1    6.72570E+01    0.9013111295209756
   2    5.55720E+01    0.7447203544773312
   3    4.35472E+01    0.5835759021004672
   4    3.38093E+01    0.4530780001943729
   5    2.69046E+01    0.3605482318821164
   6    2.21179E+01    0.2964014532530390
   7    1.85920E+01    0.2491510529340567
   8    1.58372E+01    0.2122343826717341
   9    1.36703E+01    0.1831954481130330
  10    1.20115E+01    0.1609659511594230
  11    1.07621E+01    0.1442225084480044
  12    9.77760E+00    0.1310295638528527
  13    8.92410E+00    0.1195919054865470
  14    8.16042E+00    0.1093577625257402
  15    7.53924E+00    0.1010333602670722
  16    7.10771E+00    0.0952504639373764
  17    6.82171E+00    0.0914177091717137
  18    6.56551E+00    0.0879844544228397
  19    6.23598E+00    0.0835684301668311
  20    5.80288E+00    0.0777643851410432
  21    5.31603E+00    0.0712401368479912
  22    4.87123E+00    0.0652793298923308
  23    4.54669E+00    0.0609302174897979
  24    4.34539E+00    0.0582326383080882
  25    4.19928E+00    0.0562744961735131
  26    4.03740E+00    0.0541052131730563
  27    3.84390E+00    0.0515121107246457
  28    3.64816E+00    0.0488890312468198
  29    3.47750E+00    0.0466019878789371
  30    3.33507E+00    0.0446932385561674
  31    3.21356E+00    0.0430648832813019
  32    3.11014E+00    0.0416789432601213
  33    3.02351E+00    0.0405180056400498
  34    2.94653E+00    0.0394864062860358
  35    2.86842E+00    0.0384397093644200
  36    2.78271E+00    0.0372910971488478
  37    2.69047E+00    0.0360549588241885
  38    2.59737E+00    0.0348073675506144
  39    2.50889E+00    0.0336216920762200
  40    2.42846E+00    0.0325437552289435
  41    2.35686E+00    0.0315842707975964
  42    2.29413E+00    0.0307436603752069
  43    2.23940E+00    0.0300101781813811
  44    2.19201E+00    0.0293750703739585
  45    2.15154E+00    0.0288327943356191
  46    2.11721E+00    0.0283727838244851
  47    2.08679E+00    0.0279651245397902
  48    2.06089E+00    0.0276179865080529
  49    2.03530E+00    0.0272751090355244
  50    2.00270E+00    0.0268381284347071
  51    1.97565E+00    0.0264756698835398
  52    1.94129E+00    0.0260152638100605
  53    1.88223E+00    0.0252238259297425
  54    1.87988E+00    0.0251922296125409
  55    1.82733E+00    0.0244880703803357
  56    1.81711E+00    0.0243511109395865
  57    1.71951E+00    0.0230430956179227
  58    1.74288E+00    0.0233563160579464
  59    1.48566E+00    0.0199093757433144
  60    1.41681E+00    0.0189867323444508
  61    1.16424E+00    0.0156019917446119
  62    1.73637E+00    0.0232690814716026
  63    9.74541E-01    0.0130598272338534
  64    2.20790E+00    0.0295880910815586
