  # July 4, 2014 12:22:22
 # jmin,jmax    0   50
 # Eau     0.00200000
 # r0,ra,rb,rdel,tol,Bau,mu   3.5000  25.0000  25.0000   4.0000  1.0000E-03  3.0130E-07  6.8548E+03
 # parity bigJ  0  0        1  0        1  1        2  0        2  1        2  2        3  0        3  1        3  2        3  3
 # jmin,jmax,maxlamb are            0          50         100
 # j and jp are          21          37
 # lam  B-lambda(j,jp)  angle
#   16     19.1578      8.0594
#   17      1.3296     14.2966
#   18      6.8087     18.7916
#   19      0.7111     22.6131
#   20      3.9487     26.0635
#   21      0.3698     29.2787
#   22      2.6644     32.3329
#   23      0.1911     35.2722
#   24      1.8977     38.1275
#   25      0.1047     40.9204
#   26      1.4531     43.6674
#   27      0.0690     46.3809
#   28      1.1705     49.0713
#   29      0.0540     51.7468
#   30      0.9231     54.4147
#   31      0.0443     57.0811
#   32      0.7754     59.7518
#   33      0.0361     62.4319
#   34      0.6781     65.1265
#   35      0.0292     67.8403
#   36      0.4924     70.5780
#   37      0.0236     73.3446
#   38      0.3325     76.1450
#   39      0.0187     78.9844
#   40      0.2700     81.8685
#   41      0.0144     84.8033
#   42      0.2291     87.7957
#   43      0.0107     90.8531
#   44      0.1977     93.9843
#   45      0.0075     97.1990
#   46      0.1606    100.5091
#   47      0.0050    103.9283
#   48      0.1199    107.4734
#   49      0.0031    111.1653
#   50      0.1122    115.0303
#   51      0.0016    119.1027
#   52      0.1014    123.4285
#   53      0.0006    128.0723
#   54      0.0603    133.1300
#   55      0.0002    138.7551
#   56      0.0257    145.2232
#   57      0.0000    153.1388
#   58      0.0169    164.5939
   0    3.27962E+01    1.0000000000000000
   1    2.57270E+01    0.7844505639592935
   2    1.90342E+01    0.5803795911388419
   3    1.46398E+01    0.4463885952235580
   4    1.16203E+01    0.3543188706022322
   5    9.59461E+00    0.2925524490124798
   6    8.11247E+00    0.2473602018711053
   7    6.76330E+00    0.2062221068510586
   8    5.74738E+00    0.1752452520903254
   9    4.93076E+00    0.1503453468745309
  10    4.38421E+00    0.1336803104619086
  11    3.97156E+00    0.1210983217355837
  12    3.57707E+00    0.1090695382698646
  13    3.17006E+00    0.0966593735334187
  14    2.91193E+00    0.0887885093498347
  15    2.67381E+00    0.0815280543870595
  16    2.49844E+00    0.0761806821940931
  17    2.27157E+00    0.0692631218092955
  18    2.10858E+00    0.0642934775186065
  19    1.90808E+00    0.0581800452426458
  20    1.84800E+00    0.0563479090174031
  21    1.69381E+00    0.0516464718344692
  22    1.65704E+00    0.0505253503960185
  23    1.46421E+00    0.0446455893635073
  24    1.46508E+00    0.0446721569430661
  25    1.28104E+00    0.0390606558434838
  26    1.31915E+00    0.0402226399891331
  27    1.13954E+00    0.0347462146150978
  28    1.18643E+00    0.0361758588590382
  29    1.02116E+00    0.0311365153117471
  30    1.08229E+00    0.0330005940572208
  31    9.14006E-01    0.0278692632333428
  32    1.01298E+00    0.0308872281720459
  33    8.20108E-01    0.0250061794819692
  34    9.54750E-01    0.0291116068646970
  35    7.43088E-01    0.0226577519688021
  36    9.33382E-01    0.0284600694389571
  37    6.53162E-01    0.0199157778676517
  38    8.60625E-01    0.0262416107409657
  39    6.00688E-01    0.0183157719537601
  40    9.46557E-01    0.0288617938548494
  41    4.19460E-01    0.0127899035982383
  42    1.28142E+00    0.0390722698576161
