  # July 4, 2014 12:22:22
 # jmin,jmax    0   50
 # Eau     0.00200000
 # r0,ra,rb,rdel,tol,Bau,mu   3.5000  25.0000  25.0000   4.0000  1.0000E-03  3.0130E-07  6.8548E+03
 # parity bigJ  0  0        1  0        1  1        2  0        2  1        2  2        3  0        3  1        3  2        3  3
 # jmin,jmax,maxlamb are            0          50         100
 # j and jp are          24          48
 # lam  B-lambda(j,jp)  angle
#   24      7.8436      8.1301
#   25      0.2039     14.3257
#   26      3.1996     18.7343
#   27      0.1403     22.4385
#   28      1.9777     25.7472
#   29      0.1081     28.7999
#   30      1.3937     31.6736
#   31      0.0910     34.4158
#   32      1.0679     37.0585
#   33      0.0759     39.6244
#   34      0.8034     42.1304
#   35      0.0612     44.5893
#   36      0.5889     47.0114
#   37      0.0471     49.4051
#   38      0.4575     51.7774
#   39      0.0340     54.1342
#   40      0.3707     56.4808
#   41      0.0221     58.8217
#   42      0.2960     61.1611
#   43      0.0127     63.5030
#   44      0.2444     65.8509
#   45      0.0073     68.2084
#   46      0.2251     70.5789
#   47      0.0048     72.9657
#   48      0.1892     75.3722
#   49      0.0029     77.8020
#   50      0.1116     80.2587
#   51      0.0013     82.7460
#   52      0.0424     85.2680
#   53      0.0005     87.8291
#   54      0.0125     90.4341
#   55      0.0002     93.0883
#   56      0.0043     95.7976
#   57      0.0000     98.5688
#   58      0.0014    101.4096
#   59      0.0000    104.3289
#   60      0.0003    107.3372
#   61      0.0000    110.4472
#   62      0.0001    113.6742
#   63      0.0000    117.0372
#   64      0.0001    120.5602
#   65      0.0000    124.2746
#   66      0.0000    128.2226
#   67      0.0000    132.4634
#   68      0.0000    137.0847
#   69      0.0000    142.2271
#   70      0.0000    148.1432
#   71      0.0000    155.3864
#   72      0.0000    165.8705
   0    1.65236E+01    1.0000000000000000
   1    1.38413E+01    0.8376660849522796
   2    1.01463E+01    0.6140489831879163
   3    7.19316E+00    0.4353263586557264
   4    5.49709E+00    0.3326810430937419
   5    4.53106E+00    0.2742174839727502
   6    3.75305E+00    0.2271326519019034
   7    3.10331E+00    0.1878108725377919
   8    2.69883E+00    0.1633316051129941
   9    2.47269E+00    0.1496457982985011
  10    2.24919E+00    0.1361199290192938
  11    1.98068E+00    0.1198700231968378
  12    1.75266E+00    0.1060703099601734
  13    1.61332E+00    0.0976370373386242
  14    1.51168E+00    0.0914859259715780
  15    1.39501E+00    0.0844254935916960
  16    1.28030E+00    0.0774830314091891
  17    1.20413E+00    0.0728731193104273
  18    1.15707E+00    0.0700252966998078
  19    1.10243E+00    0.0667187188845273
  20    1.03034E+00    0.0623558810534879
  21    9.60640E-01    0.0581374338927747
  22    9.07318E-01    0.0549104073635404
  23    8.64620E-01    0.0523263434586914
  24    8.23562E-01    0.0498415302014544
  25    7.83442E-01    0.0474135053989405
  26    7.47255E-01    0.0452234904413219
  27    7.14719E-01    0.0432544210123587
  28    6.83811E-01    0.0413838727330298
  29    6.53505E-01    0.0395498154620486
  30    6.24559E-01    0.0377979906219698
  31    5.97246E-01    0.0361449973789393
  32    5.71691E-01    0.0345984619358867
  33    5.47065E-01    0.0331081187178002
  34    5.23658E-01    0.0316915006651639
  35    5.01065E-01    0.0303242182619789
  36    4.79831E-01    0.0290391164151898
  37    4.60668E-01    0.0278793663879911
  38    4.43656E-01    0.0268498318115436
  39    4.28214E-01    0.0259152970498896
  40    4.19975E-01    0.0254166954133501
  41    4.04407E-01    0.0244745034424849
  42    3.92717E-01    0.0237670187683322
  43    3.87436E-01    0.0234474289796121
  44    3.79283E-01    0.0229540009304689
  45    2.90113E-01    0.0175575018061771
  46    4.21209E-01    0.0254913347909116
  47    1.83717E-01    0.0111184696567405
  48    5.10939E-01    0.0309217662441706
