  # July 4, 2014 12:22:22
 # jmin,jmax    0   50
 # Eau     0.00200000
 # r0,ra,rb,rdel,tol,Bau,mu   3.5000  25.0000  25.0000   4.0000  1.0000E-03  3.0130E-07  6.8548E+03
 # parity bigJ  0  0        1  0        1  1        2  0        2  1        2  2        3  0        3  1        3  2        3  3
 # jmin,jmax,maxlamb are            0          50         100
 # j and jp are          12          48
 # lam  B-lambda(j,jp)  angle
#   36      1.6726     13.8979
#   37      0.0062     24.5440
#   38      0.7154     32.1230
#   39      0.0065     38.5078
#   40      0.4740     44.2347
#   41      0.0054     49.5487
#   42      0.3412     54.5872
#   43      0.0039     59.4377
#   44      0.2602     64.1615
#   45      0.0026     68.8048
#   46      0.2224     73.4050
#   47      0.0018     77.9941
#   48      0.1927     82.6015
#   49      0.0012     87.2559
#   50      0.1329     91.9868
#   51      0.0006     96.8266
#   52      0.0629    101.8126
#   53      0.0002    106.9902
#   54      0.0215    112.4177
#   55      0.0001    118.1743
#   56      0.0077    124.3749
#   57      0.0000    131.2013
#   58      0.0035    138.9781
#   59      0.0000    148.4147
#   60      0.0017    161.9737
   0    6.76940E+00    1.0000000000000000
   1    4.58103E+00    0.6767259558943862
   2    2.48765E+00    0.3674851063746299
   3    1.64110E+00    0.2424299424830338
   4    1.41883E+00    0.2095947328467709
   5    1.13667E+00    0.1679123850842598
   6    8.66590E-01    0.1280158761465637
   7    7.59682E-01    0.1122229651696403
   8    7.15661E-01    0.1057199807142403
   9    6.26124E-01    0.0924932827450083
  10    5.41939E-01    0.0800572007890543
  11    4.87018E-01    0.0719440452500988
  12    4.54308E-01    0.0671119755482981
  13    4.14254E-01    0.0611951517140934
  14    3.86253E-01    0.0570586445105470
  15    3.53797E-01    0.0522641767111835
  16    3.37953E-01    0.0499237138686370
  17    3.10381E-01    0.0458506224944756
  18    3.02778E-01    0.0447274634686490
  19    2.75003E-01    0.0406245122993115
  20    2.80986E-01    0.0415082180185957
  21    2.34899E-01    0.0347002097429077
  22    2.95010E-01    0.0435800206384201
  23    1.36342E-01    0.0201408842576872
  24    4.34337E-01    0.0641617822288022
