  # July 4, 2014 12:22:22
 # jmin,jmax    0   50
 # Eau     0.00200000
 # r0,ra,rb,rdel,tol,Bau,mu   3.5000  25.0000  25.0000   4.0000  1.0000E-03  3.0130E-07  6.8548E+03
 # parity bigJ  0  0        1  0        1  1        2  0        2  1        2  2        3  0        3  1        3  2        3  3
 # jmin,jmax,maxlamb are            0          50         100
 # j and jp are          14          16
 # lam  B-lambda(j,jp)  angle
#    2   1865.0139      5.2377
#    3     15.4640     10.4946
#    4    226.6870     14.8644
#    5      4.4103     18.9830
#    6     68.1302     22.9992
#    7      1.1094     26.9729
#    8     27.3669     30.9353
#    9      0.3641     34.9061
#   10     13.0368     38.8994
#   11      0.1611     42.9268
#   12      6.9886     46.9987
#   13      0.0865     51.1252
#   14      4.1704     55.3165
#   15      0.0528     59.5836
#   16      2.7519     63.9386
#   17      0.0350     68.3951
#   18      2.0347     72.9690
#   19      0.0247     77.6789
#   20      1.5830     82.5473
#   21      0.0182     87.6020
#   22      1.3754     92.8780
#   23      0.0135     98.4210
#   24      1.2508    104.2920
#   25      0.0100    110.5771
#   26      1.2022    117.4036
#   27      0.0070    124.9755
#   28      1.3602    133.6604
#   29      0.0041    144.2646
#   30      2.2547    159.5942
   0    4.56154E+02    1.0000000000000000
   1    4.16727E+02    0.9135660053727529
   2    3.97483E+02    0.8713794906552136
   3    3.65958E+02    0.8022673199515489
   4    3.42841E+02    0.7515907506618029
   5    3.14891E+02    0.6903176687155381
   6    2.93826E+02    0.6441376651777767
   7    2.70181E+02    0.5923024446040867
   8    2.52104E+02    0.5526728178221924
   9    2.32046E+02    0.5087010741602535
  10    2.16672E+02    0.4749976662613367
  11    1.99491E+02    0.4373320331881739
  12    1.86272E+02    0.4083521941622572
  13    1.71400E+02    0.3757498513572866
  14    1.59989E+02    0.3507351184154187
  15    1.46879E+02    0.3219941363374835
  16    1.36892E+02    0.3000999789575480
  17    1.25143E+02    0.2743446798761223
  18    1.16392E+02    0.2551602337159846
  19    1.05635E+02    0.2315763379455141
  20    9.78592E+01    0.2145310163848432
  21    8.78733E+01    0.1926395578654586
  22    8.09884E+01    0.1775460153386186
  23    7.14039E+01    0.1565346736825266
  24    6.54030E+01    0.1433790541376088
  25    5.56798E+01    0.1220636395910719
  26    5.08190E+01    0.1114074495709014
  27    3.92660E+01    0.0860805289101086
  28    3.85409E+01    0.0844910155197001
