  # July 4, 2014 12:22:22
 # jmin,jmax    0   50
 # Eau     0.00200000
 # r0,ra,rb,rdel,tol,Bau,mu   3.5000  25.0000  25.0000   4.0000  1.0000E-03  3.0130E-07  6.8548E+03
 # parity bigJ  0  0        1  0        1  1        2  0        2  1        2  2        3  0        3  1        3  2        3  3
 # jmin,jmax,maxlamb are            0          50         100
 # j and jp are          30          46
 # lam  B-lambda(j,jp)  angle
#   16     24.7696      6.0805
#   17      1.7398     10.7700
#   18      8.5937     14.1425
#   19      1.3557     17.0026
#   20      4.9925     19.5778
#   21      1.0242     21.9704
#   22      3.4549     24.2360
#   23      0.7389     26.4090
#   24      2.5111     28.5121
#   25      0.5513     30.5613
#   26      1.8397     32.5684
#   27      0.4305     34.5422
#   28      1.4519     36.4899
#   29      0.3400     38.4169
#   30      1.2830     40.3279
#   31      0.2680     42.2267
#   32      1.1133     44.1167
#   33      0.2102     46.0006
#   34      0.8708     47.8809
#   35      0.1624     49.7600
#   36      0.6946     51.6399
#   37      0.1181     53.5224
#   38      0.6108     55.4093
#   39      0.0782     57.3023
#   40      0.5372     59.2031
#   41      0.0501     61.1131
#   42      0.3947     63.0339
#   43      0.0329     64.9671
#   44      0.2091     66.9143
#   45      0.0207     68.8769
#   46      0.1159     70.8567
#   47      0.0114     72.8553
#   48      0.1059     74.8744
#   49      0.0054     76.9160
#   50      0.0751     78.9820
#   51      0.0022     81.0745
#   52      0.0304     83.1957
#   53      0.0008     85.3481
#   54      0.0094     87.5344
#   55      0.0003     89.7576
#   56      0.0036     92.0208
#   57      0.0001     94.3276
#   58      0.0010     96.6822
#   59      0.0000     99.0892
#   60      0.0001    101.5536
#   61      0.0000    104.0816
#   62      0.0001    106.6801
#   63      0.0000    109.3573
#   64      0.0001    112.1228
#   65      0.0000    114.9883
#   66      0.0000    117.9680
#   67      0.0000    121.0796
#   68      0.0000    124.3456
#   69      0.0000    127.7955
#   70      0.0000    131.4687
#   71      0.0000    135.4209
#   72      0.0000    139.7346
#   73      0.0000    144.5419
#   74      0.0000    150.0805
#   75      0.0000    156.8705
#   76      0.0000    166.7095
   0    3.41104E+01    1.0000000000000000
   1    3.00052E+01    0.8796498747973290
   2    2.38390E+01    0.6988778584879498
   3    1.81104E+01    0.5309352183332410
   4    1.41496E+01    0.4148174760933271
   5    1.18052E+01    0.3460885193522704
   6    1.02769E+01    0.3012844749062907
   7    8.98579E+00    0.2634322279820702
   8    7.79501E+00    0.2285226032425666
   9    6.77436E+00    0.1986006935312570
  10    5.97580E+00    0.1751897310734484
  11    5.37982E+00    0.1577178179594015
  12    4.91920E+00    0.1442137774929843
  13    4.51667E+00    0.1324130923013245
  14    4.13486E+00    0.1212196426797982
  15    3.79750E+00    0.1113295856218893
  16    3.53963E+00    0.1037697490812015
  17    3.33908E+00    0.0978903047213910
  18    3.12578E+00    0.0916370495911963
  19    2.86513E+00    0.0839956746008316
  20    2.60327E+00    0.0763187187734120
  21    2.40930E+00    0.0706323818603874
  22    2.29157E+00    0.0671809929407885
  23    2.19705E+00    0.0644099508514237
  24    2.08264E+00    0.0610556754438253
  25    1.95546E+00    0.0573274489678478
  26    1.84159E+00    0.0539889269655998
  27    1.74512E+00    0.0511608897866889
  28    1.65278E+00    0.0484537536286361
  29    1.56011E+00    0.0457371112846918
  30    1.47544E+00    0.0432548920930395
  31    1.40369E+00    0.0411513108807649
  32    1.33935E+00    0.0392652371765886
  33    1.27510E+00    0.0373814211425145
  34    1.21011E+00    0.0354761666315748
  35    1.14804E+00    0.0336566998126129
  36    1.09149E+00    0.0319987663960229
  37    1.03976E+00    0.0304822267116533
  38    9.91201E-01    0.0290585666070660
  39    9.44841E-01    0.0276994694959423
  40    9.00944E-01    0.0264125626544506
  41    8.59610E-01    0.0252007804363933
  42    8.21601E-01    0.0240864837481124
  43    7.86155E-01    0.0230473447210109
  44    7.53755E-01    0.0220974985345216
  45    7.25133E-01    0.0212583960853925
  46    6.97659E-01    0.0204529403398849
  47    6.73402E-01    0.0197418029979250
  48    6.56224E-01    0.0192382138155861
  49    6.30099E-01    0.0184723175177403
  50    6.08692E-01    0.0178447432294754
  51    6.07431E-01    0.0178077636585263
  52    5.94443E-01    0.0174270210766557
  53    5.28982E-01    0.0155079061269198
  54    5.79043E-01    0.0169755359182837
  55    4.68143E-01    0.0137243387106411
  56    4.76749E-01    0.0139766246284806
  57    3.99587E-01    0.0117145173918212
  58    6.43065E-01    0.0188524430925384
  59    2.83625E-01    0.0083148969876217
  60    9.38836E-01    0.0275234300806313
