  # July 4, 2014 12:22:22
 # jmin,jmax    0   50
 # Eau     0.00200000
 # r0,ra,rb,rdel,tol,Bau,mu   3.5000  25.0000  25.0000   4.0000  1.0000E-03  3.0130E-07  6.8548E+03
 # parity bigJ  0  0        1  0        1  1        2  0        2  1        2  2        3  0        3  1        3  2        3  3
 # jmin,jmax,maxlamb are            0          50         100
 # j and jp are          22          32
 # lam  B-lambda(j,jp)  angle
#   10     61.6131      6.6938
#   11      2.8237     12.0035
#   12     18.7004     15.9047
#   13      1.2618     19.2768
#   14      8.9457     22.3645
#   15      0.7524     25.2759
#   16      5.1410     28.0700
#   17      0.4575     30.7824
#   18      3.3169     33.4369
#   19      0.2724     36.0503
#   20      2.3900     38.6349
#   21      0.1646     41.2003
#   22      1.8641     43.7540
#   23      0.1050     46.3025
#   24      1.4696     48.8511
#   25      0.0761     51.4045
#   26      1.2429     53.9671
#   27      0.0621     56.5429
#   28      1.0632     59.1356
#   29      0.0516     61.7490
#   30      0.8629     64.3867
#   31      0.0420     67.0526
#   32      0.7170     69.7505
#   33      0.0338     72.4844
#   34      0.6498     75.2589
#   35      0.0266     78.0785
#   36      0.5099     80.9485
#   37      0.0209     83.8746
#   38      0.3439     86.8632
#   39      0.0164     89.9216
#   40      0.2721     93.0583
#   41      0.0124     96.2831
#   42      0.2354     99.6075
#   43      0.0091    103.0454
#   44      0.2055    106.6136
#   45      0.0063    110.3331
#   46      0.1834    114.2304
#   47      0.0041    118.3400
#   48      0.1467    122.7087
#   49      0.0024    127.4018
#   50      0.1371    132.5165
#   51      0.0012    138.2082
#   52      0.1589    144.7567
#   53      0.0004    152.7746
#   54      0.1908    164.3839
   0    5.96942E+01    1.0000000000000000
   1    4.85570E+01    0.8134293028883349
   2    4.02565E+01    0.6743796509565797
   3    3.33331E+01    0.5583984197602655
   4    2.90210E+01    0.4861613843525860
   5    2.49646E+01    0.4182077376702978
   6    2.17811E+01    0.3648785395860435
   7    1.85955E+01    0.3115123925679192
   8    1.63228E+01    0.2734399391789625
   9    1.42133E+01    0.2381019439654596
  10    1.27465E+01    0.2135292765253949
  11    1.11275E+01    0.1864079207772859
  12    1.01637E+01    0.1702629678314649
  13    9.05880E+00    0.1517533988467159
  14    8.40815E+00    0.1408536834657122
  15    7.49912E+00    0.1256255643868091
  16    7.02717E+00    0.1177195286636404
  17    6.36969E+00    0.1067052897308291
  18    6.08099E+00    0.1018690521422434
  19    5.49518E+00    0.0920554910917287
  20    5.23203E+00    0.0876471838576142
  21    4.76510E+00    0.0798252175381400
  22    4.61439E+00    0.0773005038551894
  23    4.21247E+00    0.0705675133763254
  24    4.10159E+00    0.0687100555378940
  25    3.71769E+00    0.0622789962155278
  26    3.65916E+00    0.0612984344999607
  27    3.28049E+00    0.0549549417247183
  28    3.26044E+00    0.0546191228629893
  29    2.89420E+00    0.0484837204455754
  30    2.91099E+00    0.0487650217536666
  31    2.54688E+00    0.0426654943011822
  32    2.60460E+00    0.0436323189420564
  33    2.21524E+00    0.0371098591695444
  34    2.29988E+00    0.0385276558881278
  35    1.93155E+00    0.0323574412466752
  36    2.04077E+00    0.0341870285451065
  37    1.61322E+00    0.0270246639847103
  38    1.89669E+00    0.0317735103111587
  39    1.26896E+00    0.0212576003558584
  40    1.71982E+00    0.0288104559735740
  41    9.69358E-01    0.0162387238973097
  42    1.67151E+00    0.0280011687006612
  43    6.47859E-01    0.0108529656359228
  44    2.01692E+00    0.0337875061119097
