  # July 4, 2014 12:22:22
 # jmin,jmax    0   50
 # Eau     0.00200000
 # r0,ra,rb,rdel,tol,Bau,mu   3.5000  25.0000  25.0000   4.0000  1.0000E-03  3.0130E-07  6.8548E+03
 # parity bigJ  0  0        1  0        1  1        2  0        2  1        2  2        3  0        3  1        3  2        3  3
 # jmin,jmax,maxlamb are            0          50         100
 # j and jp are          32          39
 # lam  B-lambda(j,jp)  angle
#    7    135.4913      4.2294
#    8      6.2523      7.6740
#    9     54.7456     10.2529
#   10      3.6156     12.5147
#   11     31.9658     14.6089
#   12      2.7024     16.6004
#   13     20.7841     18.5237
#   14      2.0624     20.3996
#   15     14.5047     22.2414
#   16      1.5661     24.0582
#   17     10.0838     25.8569
#   18      1.2449     27.6422
#   19      7.0729     29.4181
#   20      0.9558     31.1876
#   21      5.1403     32.9532
#   22      0.6794     34.7171
#   23      4.1544     36.4810
#   24      0.4943     38.2464
#   25      3.1178     40.0149
#   26      0.3786     41.7876
#   27      2.3105     43.5658
#   28      0.2776     45.3505
#   29      1.9288     47.1428
#   30      0.1990     48.9437
#   31      1.5554     50.7543
#   32      0.1503     52.5755
#   33      1.2155     54.4083
#   34      0.1115     56.2539
#   35      0.9960     58.1130
#   36      0.0789     59.9870
#   37      0.8586     61.8768
#   38      0.0569     63.7836
#   39      0.7368     65.7087
#   40      0.0402     67.6532
#   41      0.5543     69.6186
#   42      0.0266     71.6063
#   43      0.3546     73.6179
#   44      0.0173     75.6549
#   45      0.2309     77.7193
#   46      0.0111     79.8130
#   47      0.1568     81.9381
#   48      0.0068     84.0970
#   49      0.0933     86.2923
#   50      0.0041     88.5267
#   51      0.0601     90.8036
#   52      0.0021     93.1264
#   53      0.0434     95.4992
#   54      0.0008     97.9266
#   55      0.0218    100.4138
#   56      0.0002    102.9669
#   57      0.0057    105.5927
#   58      0.0000    108.2996
#   59      0.0007    111.0974
#   60      0.0000    113.9978
#   61      0.0001    117.0153
#   62      0.0000    120.1678
#   63      0.0001    123.4781
#   64      0.0000    126.9762
#   65      0.0001    130.7020
#   66      0.0000    134.7123
#   67      0.0001    139.0908
#   68      0.0000    143.9720
#   69      0.0000    149.5972
#   70      0.0000    156.4953
#   71      0.0000    166.4939
   0    1.02691E+02    1.0000000000000000
   1    9.28151E+01    0.9038259588296151
   2    7.81082E+01    0.7606111143368335
   3    6.41400E+01    0.6245901255085731
   4    5.32895E+01    0.5189290119573792
   5    4.50690E+01    0.4388782007195169
   6    3.84126E+01    0.3740585329111676
   7    3.28686E+01    0.3200715069559947
   8    2.83970E+01    0.2765281610226141
   9    2.49395E+01    0.2428592875764377
  10    2.22710E+01    0.2168735252722525
  11    2.00832E+01    0.1955685528197759
  12    1.81855E+01    0.1770889457767427
  13    1.65759E+01    0.1614144571600541
  14    1.52817E+01    0.1488118393029536
  15    1.42290E+01    0.1385606317871378
  16    1.33067E+01    0.1295792090513147
  17    1.24603E+01    0.1213371658071658
  18    1.16896E+01    0.1138320765343155
  19    1.10116E+01    0.1072300942964500
  20    1.04286E+01    0.1015525197247972
  21    9.90259E+00    0.0964306211531502
  22    9.38915E+00    0.0914307573258557
  23    8.89825E+00    0.0866504674220567
  24    8.48064E+00    0.0825837802189396
  25    8.15380E+00    0.0794010808811558
  26    7.88651E+00    0.0767982230891924
  27    7.64421E+00    0.0744386868636350
  28    7.41383E+00    0.0721952558616955
  29    7.18696E+00    0.0699860619404607
  30    6.95531E+00    0.0677302770928560
  31    6.72241E+00    0.0654623113191574
  32    6.50588E+00    0.0633537114983902
  33    6.32022E+00    0.0615457593418488
  34    6.16512E+00    0.0600354643764507
  35    6.02767E+00    0.0586970129401900
  36    5.89402E+00    0.0573954516983319
  37    5.75559E+00    0.0560474424799706
  38    5.61349E+00    0.0546636773020829
  39    5.47482E+00    0.0533134038545530
  40    5.34490E+00    0.0520482100371695
  41    5.23199E+00    0.0509486531086626
  42    5.13248E+00    0.0499796479059839
  43    5.03775E+00    0.0490572361959755
  44    4.96843E+00    0.0483821935183167
  45    4.86253E+00    0.0473509579120042
  46    4.81075E+00    0.0468467134523343
  47    4.69087E+00    0.0456793578226859
  48    4.63219E+00    0.0451078628729419
  49    4.49385E+00    0.0437607477878756
  50    4.45464E+00    0.0433789254121929
  51    4.27066E+00    0.0415873586869497
  52    4.29157E+00    0.0417909180518029
  53    4.10733E+00    0.0399968708337330
  54    4.17947E+00    0.0406993407038602
  55    3.87492E+00    0.0377336715291710
  56    4.05975E+00    0.0395335001341026
  57    3.51788E+00    0.0342568380698229
  58    4.06310E+00    0.0395661669775797
  59    3.40018E+00    0.0331107005813671
  60    4.09807E+00    0.0399066776787234
  61    3.03491E+00    0.0295536943579204
  62    4.01697E+00    0.0391169659881185
  63    2.39440E+00    0.0233164816085057
  64    4.65384E+00    0.0453187645856801
