  # July 4, 2014 12:22:22
 # jmin,jmax    0   50
 # Eau     0.00200000
 # r0,ra,rb,rdel,tol,Bau,mu   3.5000  25.0000  25.0000   4.0000  1.0000E-03  3.0130E-07  6.8548E+03
 # parity bigJ  0  0        1  0        1  1        2  0        2  1        2  2        3  0        3  1        3  2        3  3
 # jmin,jmax,maxlamb are            0          50         100
 # j and jp are          23          41
 # lam  B-lambda(j,jp)  angle
#   18     15.9527      7.7731
#   19      1.7351     13.7545
#   20      6.0359     18.0457
#   21      1.0589     21.6786
#   22      3.8364     24.9461
#   23      0.6938     27.9796
#   24      2.7133     30.8516
#   25      0.4315     33.6068
#   26      1.9615     36.2748
#   27      0.2517     38.8770
#   28      1.4529     41.4291
#   29      0.1418     43.9430
#   30      1.0584     46.4284
#   31      0.0819     48.8933
#   32      0.8460     51.3441
#   33      0.0544     53.7866
#   34      0.6996     56.2258
#   35      0.0429     58.6663
#   36      0.4850     61.1121
#   37      0.0345     63.5672
#   38      0.3403     66.0355
#   39      0.0258     68.5204
#   40      0.2785     71.0258
#   41      0.0190     73.5553
#   42      0.2338     76.1129
#   43      0.0140     78.7024
#   44      0.1951     81.3281
#   45      0.0099     83.9947
#   46      0.1419     86.7072
#   47      0.0066     89.4711
#   48      0.1085     92.2925
#   49      0.0040     95.1786
#   50      0.1007     98.1372
#   51      0.0020    101.1778
#   52      0.0705    104.3113
#   53      0.0008    107.5508
#   54      0.0299    110.9123
#   55      0.0003    114.4155
#   56      0.0101    118.0855
#   57      0.0001    121.9550
#   58      0.0041    126.0679
#   59      0.0000    130.4857
#   60      0.0012    135.3000
#   61      0.0000    140.6571
#   62      0.0002    146.8203
#   63      0.0000    154.3661
#   64      0.0003    165.2894
   0    3.00567E+01    1.0000000000000000
   1    2.49998E+01    0.8317538489425428
   2    1.86968E+01    0.6220493927919044
   3    1.39143E+01    0.4629350317965849
   4    1.06409E+01    0.3540259761625525
   5    8.26465E+00    0.2749680824494188
   6    6.66450E+00    0.2217304387411530
   7    5.61849E+00    0.1869292901898051
   8    4.81612E+00    0.1602341239030429
   9    4.18775E+00    0.1393279601284042
  10    3.73409E+00    0.1242347416172966
  11    3.36798E+00    0.1120540092051655
  12    3.06016E+00    0.1018129047898836
  13    2.81007E+00    0.0934922113741438
  14    2.55115E+00    0.0848776626145341
  15    2.27090E+00    0.0755538269463540
  16    2.05093E+00    0.0682352878199821
  17    1.90932E+00    0.0635238261774768
  18    1.78878E+00    0.0595135281855033
  19    1.66359E+00    0.0553482197868901
  20    1.54373E+00    0.0513605975359818
  21    1.42786E+00    0.0475053389621889
  22    1.32466E+00    0.0440720154207188
  23    1.24574E+00    0.0414462786153842
  24    1.19341E+00    0.0397053506914529
  25    1.13824E+00    0.0378696900499477
  26    1.08147E+00    0.0359808347436738
  27    1.01635E+00    0.0338143371588949
  28    9.68618E-01    0.0322263210215492
  29    9.20381E-01    0.0306214416584886
  30    8.89338E-01    0.0295886274905617
  31    8.46749E-01    0.0281716700355609
  32    8.31749E-01    0.0276726319863532
  33    7.76050E-01    0.0258194942856120
  34    7.99032E-01    0.0265841040353865
  35    7.07828E-01    0.0235497356057320
  36    7.72817E-01    0.0257119332246736
  37    6.59298E-01    0.0219351081150016
  38    7.26420E-01    0.0241682944171628
  39    6.02339E-01    0.0200400449332825
  40    7.11821E-01    0.0236825704422011
  41    5.75551E-01    0.0191488162063893
  42    7.40558E-01    0.0246386559907015
  43    4.88479E-01    0.0162518756219071
  44    7.09591E-01    0.0236083799420480
  45    4.41576E-01    0.0146914158407101
  46    9.49030E-01    0.0315746023496296
