  # July 4, 2014 12:22:22
 # jmin,jmax    0   50
 # Eau     0.00200000
 # r0,ra,rb,rdel,tol,Bau,mu   3.5000  25.0000  25.0000   4.0000  1.0000E-03  3.0130E-07  6.8548E+03
 # parity bigJ  0  0        1  0        1  1        2  0        2  1        2  2        3  0        3  1        3  2        3  3
 # jmin,jmax,maxlamb are            0          50         100
 # j and jp are          19          48
 # lam  B-lambda(j,jp)  angle
#   29      9.9083     10.0091
#   30      0.1338     17.6272
#   31      4.2931     23.0364
#   32      0.0734     27.5747
#   33      2.9014     31.6246
#   34      0.0482     35.3595
#   35      2.1849     38.8751
#   36      0.0339     42.2314
#   37      1.6598     45.4687
#   38      0.0229     48.6159
#   39      1.2441     51.6948
#   40      0.0148     54.7223
#   41      0.9088     57.7122
#   42      0.0097     60.6761
#   43      0.6499     63.6239
#   44      0.0069     66.5643
#   45      0.4329     69.5053
#   46      0.0046     72.4545
#   47      0.2442     75.4190
#   48      0.0027     78.4060
#   49      0.1260     81.4226
#   50      0.0016     84.4763
#   51      0.0752     87.5751
#   52      0.0008     90.7273
#   53      0.0440     93.9425
#   54      0.0003     97.2312
#   55      0.0176    100.6058
#   56      0.0001    104.0806
#   57      0.0040    107.6727
#   58      0.0000    111.4032
#   59      0.0006    115.2987
#   60      0.0000    119.3934
#   61      0.0001    123.7332
#   62      0.0000    128.3825
#   63      0.0001    133.4363
#   64      0.0000    139.0468
#   65      0.0001    145.4872
#   66      0.0000    153.3563
#   67      0.0001    164.7272
   0    2.72087E+01    1.0000000000000000
   1    2.21879E+01    0.8154706632019412
   2    1.53106E+01    0.5627108960423484
   3    9.86251E+00    0.3624764035844787
   4    6.88750E+00    0.2531358270073789
   5    5.57555E+00    0.2049179677640171
   6    4.87678E+00    0.1792360998321903
   7    4.29144E+00    0.1577230493150507
   8    3.74490E+00    0.1376359627732593
   9    3.29698E+00    0.1211738530441888
  10    2.97156E+00    0.1092134669736114
  11    2.70892E+00    0.0995608574860457
  12    2.45390E+00    0.0901879033522788
  13    2.22551E+00    0.0817941629155155
  14    2.05904E+00    0.0756757735429103
  15    1.93467E+00    0.0711049397716780
  16    1.81453E+00    0.0666893195579923
  17    1.69458E+00    0.0622806458345311
  18    1.59201E+00    0.0585110609539638
  19    1.50846E+00    0.0554402248117303
  20    1.43379E+00    0.0526959438398912
  21    1.36192E+00    0.0500543842035774
  22    1.29539E+00    0.0476093215547811
  23    1.23609E+00    0.0454298103153826
  24    1.18416E+00    0.0435213813252056
  25    1.13773E+00    0.0418147567345424
  26    1.09650E+00    0.0402995250363908
  27    1.05935E+00    0.0389341736618944
  28    1.02612E+00    0.0377131027360636
  29    9.96012E-01    0.0366063795980616
  30    9.67781E-01    0.0355688090328283
  31    9.39841E-01    0.0345419281389189
  32    9.20044E-01    0.0338143036878527
  33    8.77978E-01    0.0322682702260991
  34    8.94961E-01    0.0328924442712638
  35    8.13725E-01    0.0299067934332120
  36    8.45506E-01    0.0310748277128808
  37    7.22778E-01    0.0265642184677942
  38    9.91538E-01    0.0364419424084418
