  # July 4, 2014 12:22:22
 # jmin,jmax    0   50
 # Eau     0.00200000
 # r0,ra,rb,rdel,tol,Bau,mu   3.5000  25.0000  25.0000   4.0000  1.0000E-03  3.0130E-07  6.8548E+03
 # parity bigJ  0  0        1  0        1  1        2  0        2  1        2  2        3  0        3  1        3  2        3  3
 # jmin,jmax,maxlamb are            0          50         100
 # j and jp are          30          37
 # lam  B-lambda(j,jp)  angle
#    7    133.3898      4.4806
#    8      4.4729      8.1308
#    9     53.3769     10.8640
#   10      2.8612     13.2618
#   11     31.0288     15.4824
#   12      2.0775     17.5948
#   13     20.4397     19.6355
#   14      1.5310     21.6264
#   15     14.2340     23.5820
#   16      1.1623     25.5118
#   17      9.9641     27.4231
#   18      0.8769     29.3211
#   19      7.4641     31.2101
#   20      0.6387     33.0933
#   21      5.3935     34.9734
#   22      0.4857     36.8528
#   23      3.8808     38.7335
#   24      0.3796     40.6171
#   25      2.9755     42.5054
#   26      0.2819     44.3997
#   27      2.3102     46.3014
#   28      0.2084     48.2118
#   29      1.8683     50.1323
#   30      0.1594     52.0639
#   31      1.5046     54.0080
#   32      0.1210     55.9658
#   33      1.2135     57.9385
#   34      0.0918     59.9275
#   35      1.0057     61.9341
#   36      0.0700     63.9596
#   37      0.8499     66.0055
#   38      0.0517     68.0735
#   39      0.7338     70.1651
#   40      0.0359     72.2821
#   41      0.5862     74.4264
#   42      0.0236     76.6001
#   43      0.3946     78.8054
#   44      0.0154     81.0447
#   45      0.2500     83.3208
#   46      0.0100     85.6366
#   47      0.1710     87.9954
#   48      0.0062     90.4009
#   49      0.1082     92.8572
#   50      0.0037     95.3692
#   51      0.0671     97.9421
#   52      0.0020    100.5823
#   53      0.0494    103.2969
#   54      0.0009    106.0944
#   55      0.0295    108.9849
#   56      0.0002    111.9805
#   57      0.0100    115.0961
#   58      0.0000    118.3502
#   59      0.0016    121.7663
#   60      0.0000    125.3751
#   61      0.0002    129.2180
#   62      0.0000    133.3531
#   63      0.0001    137.8667
#   64      0.0000    142.8973
#   65      0.0001    148.6933
#   66      0.0000    155.7995
#   67      0.0002    166.0981
   0    1.05296E+02    1.0000000000000000
   1    9.37153E+01    0.8900208398436362
   2    7.74328E+01    0.7353849022681914
   3    6.30302E+01    0.5986021311184082
   4    5.22675E+01    0.4963878325342850
   5    4.39702E+01    0.4175879975956246
   6    3.71402E+01    0.3527230659307690
   7    3.15896E+01    0.3000083053367508
   8    2.73410E+01    0.2596592530383946
   9    2.41966E+01    0.2297965223946070
  10    2.17297E+01    0.2063686333456215
  11    1.96206E+01    0.1863380919443947
  12    1.78342E+01    0.1693726752968526
  13    1.63814E+01    0.1555751082172080
  14    1.51613E+01    0.1439875097928587
  15    1.40678E+01    0.1336032806924541
  16    1.30711E+01    0.1241374893656637
  17    1.21942E+01    0.1158089686844089
  18    1.14704E+01    0.1089351600279818
  19    1.08750E+01    0.1032807271398540
  20    1.03364E+01    0.0981653816829836
  21    9.82766E+00    0.0933339828587097
  22    9.37418E+00    0.0890272550540363
  23    8.97449E+00    0.0852313119362763
  24    8.59820E+00    0.0816576770879839
  25    8.23966E+00    0.0782526496204832
  26    7.91780E+00    0.0751958411032112
  27    7.63725E+00    0.0725314988028249
  28    7.38795E+00    0.0701638126273810
  29    7.16410E+00    0.0680379356039932
  30    6.96619E+00    0.0661583955134187
  31    6.79012E+00    0.0644862384514508
  32    6.62308E+00    0.0628998610501268
  33    6.45338E+00    0.0612881614562528
  34    6.27943E+00    0.0596362022684811
  35    6.09619E+00    0.0578959508375401
  36    5.93653E+00    0.0563796153770587
  37    5.76401E+00    0.0547411625010939
  38    5.65361E+00    0.0536927438120133
  39    5.49842E+00    0.0522188449088246
  40    5.42335E+00    0.0515059501457994
  41    5.27660E+00    0.0501122002956503
  42    5.21320E+00    0.0495101469871427
  43    5.05774E+00    0.0480337330173816
  44    5.02171E+00    0.0476914925032507
  45    4.82660E+00    0.0458385102110630
  46    4.82600E+00    0.0458328541434332
  47    4.58948E+00    0.0435866417447017
  48    4.60986E+00    0.0437801491112124
  49    4.32099E+00    0.0410367289497734
  50    4.50016E+00    0.0427382796879530
  51    4.08038E+00    0.0387516669367938
  52    4.49609E+00    0.0426996843368320
  53    3.86569E+00    0.0367126820321560
  54    4.44465E+00    0.0422111056354839
  55    3.59536E+00    0.0341454174258406
  56    4.34557E+00    0.0412701553848406
  57    3.23851E+00    0.0307563044555703
  58    4.49179E+00    0.0426588181801244
  59    2.83826E+00    0.0269551931945984
  60    5.33725E+00    0.0506882428902148
