  # July 4, 2014 12:22:22
 # jmin,jmax    0   50
 # Eau     0.00200000
 # r0,ra,rb,rdel,tol,Bau,mu   3.5000  25.0000  25.0000   4.0000  1.0000E-03  3.0130E-07  6.8548E+03
 # parity bigJ  0  0        1  0        1  1        2  0        2  1        2  2        3  0        3  1        3  2        3  3
 # jmin,jmax,maxlamb are            0          50         100
 # j and jp are          21          46
 # lam  B-lambda(j,jp)  angle
#   25     13.9455      9.0429
#   26      0.5779     15.9387
#   27      6.0210     20.8460
#   28      0.3138     24.9707
#   29      3.9938     28.6569
#   30      0.2323     32.0603
#   31      2.7757     35.2668
#   32      0.1766     38.3298
#   33      1.8953     41.2852
#   34      0.1318     44.1585
#   35      1.3219     46.9690
#   36      0.0943     49.7313
#   37      1.0122     52.4573
#   38      0.0634     55.1570
#   39      0.7738     57.8385
#   40      0.0391     60.5091
#   41      0.5078     63.1754
#   42      0.0214     65.8431
#   43      0.3359     68.5178
#   44      0.0111     71.2048
#   45      0.2713     73.9092
#   46      0.0063     76.6362
#   47      0.1933     79.3910
#   48      0.0039     82.1790
#   49      0.1049     85.0061
#   50      0.0024     87.8783
#   51      0.0620     90.8026
#   52      0.0013     93.7865
#   53      0.0415     96.8384
#   54      0.0005     99.9681
#   55      0.0193    103.1871
#   56      0.0001    106.5089
#   57      0.0048    109.9498
#   58      0.0000    113.5301
#   59      0.0006    117.2752
#   60      0.0000    121.2183
#   61      0.0001    125.4038
#   62      0.0000    129.8941
#   63      0.0001    134.7817
#   64      0.0000    140.2144
#   65      0.0001    146.4581
#   66      0.0000    154.0951
#   67      0.0001    165.1408
   0    3.24430E+01    1.0000000000000000
   1    2.72367E+01    0.8395251389697437
   2    2.00179E+01    0.6170156948661399
   3    1.39865E+01    0.4311098541542594
   4    1.01190E+01    0.3118990002306355
   5    7.80488E+00    0.2405718877891582
   6    6.34058E+00    0.1954373183855578
   7    5.36829E+00    0.1654682362435122
   8    4.68575E+00    0.1444300948898187
   9    4.16958E+00    0.1285201615512735
  10    3.76697E+00    0.1161103963760530
  11    3.44539E+00    0.1061980895473926
  12    3.18306E+00    0.0981123620647272
  13    2.95202E+00    0.0909909699657487
  14    2.70843E+00    0.0834826414044317
  15    2.44780E+00    0.0754490050453746
  16    2.23367E+00    0.0688491080740061
  17    2.10605E+00    0.0649153083185039
  18    2.02223E+00    0.0623316536801010
  19    1.92288E+00    0.0592695218455381
  20    1.80677E+00    0.0556904043472689
  21    1.70426E+00    0.0525308405085114
  22    1.62686E+00    0.0501450075564529
  23    1.56247E+00    0.0481604567839429
  24    1.50100E+00    0.0462657406279797
  25    1.44134E+00    0.0444266943738551
  26    1.38626E+00    0.0427291069725823
  27    1.33568E+00    0.0411698488096136
  28    1.28884E+00    0.0397261012853349
  29    1.24455E+00    0.0383611816798121
  30    1.20132E+00    0.0370285914603289
  31    1.15949E+00    0.0357393996480134
  32    1.11859E+00    0.0344786499427620
  33    1.07052E+00    0.0329970571021661
  34    1.04121E+00    0.0320935093391610
  35    9.65827E-01    0.0297699185327419
  36    9.57028E-01    0.0294987004933024
  37    8.54195E-01    0.0263290584483452
  38    8.16904E-01    0.0251796442810902
  39    6.76087E-01    0.0208392116617737
  40    8.10558E-01    0.0249840338652117
  41    5.67637E-01    0.0174964101307521
  42    9.15082E-01    0.0282057953882193
