  # July 4, 2014 12:22:22
 # jmin,jmax    0   50
 # Eau     0.00200000
 # r0,ra,rb,rdel,tol,Bau,mu   3.5000  25.0000  25.0000   4.0000  1.0000E-03  3.0130E-07  6.8548E+03
 # parity bigJ  0  0        1  0        1  1        2  0        2  1        2  2        3  0        3  1        3  2        3  3
 # jmin,jmax,maxlamb are            0          50         100
 # j and jp are          19          46
 # lam  B-lambda(j,jp)  angle
#   27     11.2626      9.8641
#   28      0.2735     17.3837
#   29      4.9426     22.7308
#   30      0.1683     27.2230
#   31      3.1137     31.2368
#   32      0.1339     34.9425
#   33      2.0458     38.4345
#   34      0.1028     41.7715
#   35      1.3834     44.9930
#   36      0.0750     48.1274
#   37      1.0272     51.1962
#   38      0.0509     54.2160
#   39      0.7836     57.2003
#   40      0.0314     60.1604
#   41      0.5269     63.1061
#   42      0.0172     66.0461
#   43      0.3536     68.9881
#   44      0.0090     71.9397
#   45      0.2837     74.9079
#   46      0.0051     77.8999
#   47      0.2041     80.9227
#   48      0.0032     83.9838
#   49      0.1119     87.0910
#   50      0.0020     90.2529
#   51      0.0647     93.4788
#   52      0.0011     96.7795
#   53      0.0437    100.1673
#   54      0.0004    103.6564
#   55      0.0214    107.2642
#   56      0.0001    111.0119
#   57      0.0057    114.9260
#   58      0.0000    119.0411
#   59      0.0008    123.4034
#   60      0.0000    128.0774
#   61      0.0001    133.1590
#   62      0.0000    138.8011
#   63      0.0001    145.2788
#   64      0.0000    153.1945
#   65      0.0002    164.6344
   0    2.79585E+01    1.0000000000000000
   1    2.30645E+01    0.8249534599775646
   2    1.65816E+01    0.5930783094276393
   3    1.15076E+01    0.4115937377934902
   4    8.41634E+00    0.3010293723585348
   5    6.55216E+00    0.2343525916986946
   6    5.32781E+00    0.1905611158700205
   7    4.49369E+00    0.1607268107695245
   8    3.90372E+00    0.1396251937670184
   9    3.46577E+00    0.1239610459289088
  10    3.12467E+00    0.1117609439101265
  11    2.85474E+00    0.1021062265979912
  12    2.65971E+00    0.0951304021513475
  13    2.50071E+00    0.0894436474212630
  14    2.31182E+00    0.0826873413949010
  15    2.10155E+00    0.0751667127689525
  16    1.93995E+00    0.0693865399070659
  17    1.84315E+00    0.0659244982138709
  18    1.76488E+00    0.0631249779777058
  19    1.67325E+00    0.0598476306769665
  20    1.57854E+00    0.0564601065291023
  21    1.49584E+00    0.0535019309463739
  22    1.42571E+00    0.0509935705579264
  23    1.36114E+00    0.0486842826171610
  24    1.29919E+00    0.0464684333879207
  25    1.23940E+00    0.0443299259303428
  26    1.18206E+00    0.0422791817210569
  27    1.12529E+00    0.0402484666379573
  28    1.07355E+00    0.0383980331472049
  29    1.01138E+00    0.0361743468978172
  30    9.72357E-01    0.0347785214116017
  31    8.86720E-01    0.0317155374465538
  32    8.68417E-01    0.0310608952058672
  33    7.55059E-01    0.0270063797430880
  34    7.35151E-01    0.0262943390375452
  35    6.29433E-01    0.0225131030030970
  36    7.54865E-01    0.0269994373574230
  37    5.04090E-01    0.0180299256385110
  38    8.39923E-01    0.0300417296627776
