  # July 4, 2014 12:22:22
 # jmin,jmax    0   50
 # Eau     0.00200000
 # r0,ra,rb,rdel,tol,Bau,mu   3.5000  25.0000  25.0000   4.0000  1.0000E-03  3.0130E-07  6.8548E+03
 # parity bigJ  0  0        1  0        1  1        2  0        2  1        2  2        3  0        3  1        3  2        3  3
 # jmin,jmax,maxlamb are            0          50         100
 # j and jp are          23          36
 # lam  B-lambda(j,jp)  angle
#   13     48.7858      7.0458
#   14      1.2443     12.5462
#   15     19.5330     16.5386
#   16      0.8175     19.9537
#   17     11.6474     23.0530
#   18      0.6502     25.9533
#   19      7.9505     28.7183
#   20      0.5034     31.3870
#   21      5.5778     33.9856
#   22      0.3583     36.5323
#   23      4.1074     39.0407
#   24      0.2538     41.5213
#   25      3.1490     43.9823
#   26      0.1910     46.4306
#   27      2.3448     48.8719
#   28      0.1443     51.3111
#   29      1.8606     53.7528
#   30      0.1062     56.2008
#   31      1.5239     58.6589
#   32      0.0791     61.1307
#   33      1.2199     63.6197
#   34      0.0602     66.1292
#   35      1.0070     68.6626
#   36      0.0457     71.2236
#   37      0.8576     73.8159
#   38      0.0340     76.4432
#   39      0.7466     79.1098
#   40      0.0244     81.8203
#   41      0.6310     84.5796
#   42      0.0165     87.3932
#   43      0.4641     90.2673
#   44      0.0106     93.2090
#   45      0.2982     96.2264
#   46      0.0067     99.3290
#   47      0.2004    102.5280
#   48      0.0041    105.8366
#   49      0.1401    109.2711
#   50      0.0024    112.8518
#   51      0.0904    116.6043
#   52      0.0013    120.5619
#   53      0.0666    124.7697
#   54      0.0006    129.2906
#   55      0.0521    134.2185
#   56      0.0002    139.7032
#   57      0.0295    146.0144
#   58      0.0000    153.7430
#   59      0.0127    164.9336
   0    7.18290E+01    1.0000000000000000
   1    5.82218E+01    0.8105606469155998
   2    4.32431E+01    0.6020287323368357
   3    3.29821E+01    0.4591743398616748
   4    2.63827E+01    0.3672981607094349
   5    2.13890E+01    0.2977764746806973
   6    1.74722E+01    0.2432468234538860
   7    1.47706E+01    0.2056361848277408
   8    1.29647E+01    0.1804934477265527
   9    1.14580E+01    0.1595181806245953
  10    1.02014E+01    0.1420239121750910
  11    9.19066E+00    0.1279519330391402
  12    8.45091E+00    0.1176530822933940
  13    7.76083E+00    0.1080458993839830
  14    7.14467E+00    0.0994676509550806
  15    6.59920E+00    0.0918736457911927
  16    6.21879E+00    0.0865776193081440
  17    5.80794E+00    0.0808578573300706
  18    5.48681E+00    0.0763870554076551
  19    5.13242E+00    0.0714532795752250
  20    4.89864E+00    0.0681986604003290
  21    4.60158E+00    0.0640629311882546
  22    4.44903E+00    0.0619390970737182
  23    4.22000E+00    0.0587506664171168
  24    4.11627E+00    0.0573064903607476
  25    3.88641E+00    0.0541064519514086
  26    3.77626E+00    0.0525729267478037
  27    3.54162E+00    0.0493061929292484
  28    3.46253E+00    0.0482051978778698
  29    3.24012E+00    0.0451087564428130
  30    3.21200E+00    0.0447173087100634
  31    2.97490E+00    0.0414164054780967
  32    2.98985E+00    0.0416245773318869
  33    2.72933E+00    0.0379975315328109
  34    2.78557E+00    0.0387805652296516
  35    2.50087E+00    0.0348170367042008
  36    2.63698E+00    0.0367119203695431
  37    2.27186E+00    0.0316286444646608
  38    2.57727E+00    0.0358805891333917
  39    2.02764E+00    0.0282286862315170
  40    2.49979E+00    0.0348019600399933
  41    1.73526E+00    0.0241582508349454
  42    2.41161E+00    0.0335743719631087
  43    1.51919E+00    0.0211500286275536
  44    2.46195E+00    0.0342751218583256
  45    1.20532E+00    0.0167803455818788
  46    2.95866E+00    0.0411903535316717
