  # July 4, 2014 12:22:22
 # jmin,jmax    0   50
 # Eau     0.00200000
 # r0,ra,rb,rdel,tol,Bau,mu   3.5000  25.0000  25.0000   4.0000  1.0000E-03  3.0130E-07  6.8548E+03
 # parity bigJ  0  0        1  0        1  1        2  0        2  1        2  2        3  0        3  1        3  2        3  3
 # jmin,jmax,maxlamb are            0          50         100
 # j and jp are          32          44
 # lam  B-lambda(j,jp)  angle
#   12     46.5819      5.2159
#   13      6.8297      9.2954
#   14     14.3312     12.2619
#   15      4.2399     14.8023
#   16      7.9653     17.1087
#   17      2.6539     19.2669
#   18      5.2516     21.3233
#   19      1.8096     23.3062
#   20      4.0548     25.2343
#   21      1.2716     27.1206
#   22      3.1827     28.9746
#   23      0.9458     30.8035
#   24      2.7051     32.6129
#   25      0.7480     34.4073
#   26      2.3224     36.1902
#   27      0.5983     37.9648
#   28      1.7998     39.7336
#   29      0.4862     41.4988
#   30      1.4118     43.2625
#   31      0.3994     45.0262
#   32      1.1251     46.7917
#   33      0.3129     48.5603
#   34      0.7926     50.3335
#   35      0.2169     52.1125
#   36      0.5608     53.8986
#   37      0.1317     55.6929
#   38      0.4100     57.4966
#   39      0.0746     59.3110
#   40      0.2814     61.1371
#   41      0.0415     62.9762
#   42      0.2254     64.8294
#   43      0.0238     66.6980
#   44      0.1781     68.5833
#   45      0.0151     70.4866
#   46      0.1300     72.4093
#   47      0.0095     74.3529
#   48      0.1132     76.3190
#   49      0.0049     78.3092
#   50      0.0810     80.3255
#   51      0.0020     82.3697
#   52      0.0349     84.4439
#   53      0.0007     86.5506
#   54      0.0112     88.6923
#   55      0.0003     90.8718
#   56      0.0044     93.0922
#   57      0.0001     95.3570
#   58      0.0013     97.6703
#   59      0.0000    100.0365
#   60      0.0002    102.4607
#   61      0.0000    104.9488
#   62      0.0001    107.5076
#   63      0.0000    110.1453
#   64      0.0001    112.8713
#   65      0.0000    115.6971
#   66      0.0000    118.6369
#   67      0.0000    121.7081
#   68      0.0000    124.9331
#   69      0.0000    128.3408
#   70      0.0000    131.9704
#   71      0.0000    135.8771
#   72      0.0000    140.1426
#   73      0.0000    144.8976
#   74      0.0000    150.3776
#   75      0.0000    157.0977
#   76      0.0000    166.8377
   0    5.06206E+01    1.0000000000000000
   1    4.55634E+01    0.9000960038549003
   2    3.77237E+01    0.7452243415244572
   3    2.99356E+01    0.5913710134934154
   4    2.38739E+01    0.4716245148090558
   5    1.97230E+01    0.3896234784601144
   6    1.69439E+01    0.3347233293515377
   7    1.49968E+01    0.2962589645982069
   8    1.35020E+01    0.2667288142783398
   9    1.21739E+01    0.2404936908839124
  10    1.08653E+01    0.2146423595835616
  11    9.61718E+00    0.1899855742671795
  12    8.54827E+00    0.1688693979808284
  13    7.69495E+00    0.1520121633951213
  14    6.99238E+00    0.1381331718555377
  15    6.37361E+00    0.1259094373931925
  16    5.82575E+00    0.1150865215623015
  17    5.35422E+00    0.1057715334677991
  18    4.94456E+00    0.0976787546589337
  19    4.57820E+00    0.0904414690564772
  20    4.25385E+00    0.0840339025384621
  21    3.97024E+00    0.0784312494369722
  22    3.70761E+00    0.0732431569431135
  23    3.44796E+00    0.0681137773339106
  24    3.19969E+00    0.0632092048591182
  25    2.98212E+00    0.0589111847338946
  26    2.79645E+00    0.0552433034660000
  27    2.62991E+00    0.0519532703357949
  28    2.47800E+00    0.0489523594314780
  29    2.34294E+00    0.0462844228632718
  30    2.21611E+00    0.0437789024070867
  31    2.08074E+00    0.0411046155323119
  32    1.93331E+00    0.0381921554917140
  33    1.78973E+00    0.0353557074278150
  34    1.66790E+00    0.0329489783489921
  35    1.57081E+00    0.0310311053218656
  36    1.48909E+00    0.0294166189936488
  37    1.41320E+00    0.0279174699778491
  38    1.34045E+00    0.0264804188824995
  39    1.27224E+00    0.0251329036083770
  40    1.20982E+00    0.0238997025186204
  41    1.15225E+00    0.0227625186256061
  42    1.09855E+00    0.0217016155943447
  43    1.04693E+00    0.0206818427304071
  44    9.97434E-01    0.0197041153222398
  45    9.50185E-01    0.0187707235959003
  46    9.03107E-01    0.0178406985782273
  47    8.59151E-01    0.0169723669530852
  48    8.18831E-01    0.0161758533906426
  49    7.73894E-01    0.0152881212987973
  50    7.41772E-01    0.0146535532426980
  51    7.16066E-01    0.0141457393159689
  52    6.81124E-01    0.0134554687047038
  53    6.52531E-01    0.0128906302821303
  54    6.89637E-01    0.0136236378246383
  55    6.37606E-01    0.0125957752650809
  56    6.90146E-01    0.0136337030995948
  57    5.76046E-01    0.0113796781326420
  58    6.70677E-01    0.0132491016548131
  59    5.47022E-01    0.0108063059846265
  60    7.32684E-01    0.0144740389939029
  61    5.78135E-01    0.0114209455593874
  62    8.65347E-01    0.0170947586614586
  63    6.19114E-01    0.0122304856579330
  64    1.27006E+00    0.0250898264920961
