  # July 4, 2014 12:22:22
 # jmin,jmax    0   50
 # Eau     0.00200000
 # r0,ra,rb,rdel,tol,Bau,mu   3.5000  25.0000  25.0000   4.0000  1.0000E-03  3.0130E-07  6.8548E+03
 # parity bigJ  0  0        1  0        1  1        2  0        2  1        2  2        3  0        3  1        3  2        3  3
 # jmin,jmax,maxlamb are            0          50         100
 # j and jp are          20          46
 # lam  B-lambda(j,jp)  angle
#   26      6.7068      9.4425
#   27      0.1902     16.6413
#   28      2.8185     21.7619
#   29      0.1154     26.0645
#   30      1.9049     29.9091
#   31      0.0995     33.4585
#   32      1.4976     36.8026
#   33      0.0824     39.9974
#   34      1.1066     43.0806
#   35      0.0654     46.0792
#   36      0.7826     49.0132
#   37      0.0496     51.8985
#   38      0.6176     54.7477
#   39      0.0353     57.5712
#   40      0.5233     60.3781
#   41      0.0240     63.1762
#   42      0.4043     65.9726
#   43      0.0157     68.7740
#   44      0.2449     71.5864
#   45      0.0097     74.4160
#   46      0.1363     77.2688
#   47      0.0055     80.1509
#   48      0.1186     83.0685
#   49      0.0029     86.0284
#   50      0.1033     89.0379
#   51      0.0014     92.1049
#   52      0.0549     95.2384
#   53      0.0006     98.4484
#   54      0.0182    101.7468
#   55      0.0002    105.1475
#   56      0.0059    108.6673
#   57      0.0001    112.3268
#   58      0.0022    116.1520
#   59      0.0000    120.1768
#   60      0.0005    124.4464
#   61      0.0000    129.0243
#   62      0.0002    134.0044
#   63      0.0000    139.5371
#   64      0.0002    145.8927
#   65      0.0000    153.6631
#   66      0.0002    164.8977
   0    1.77840E+01    1.0000000000000000
   1    1.42249E+01    0.7998702136282763
   2    9.62918E+00    0.5414509466216535
   3    6.28232E+00    0.3532560512852647
   4    4.53886E+00    0.2552209248411109
   5    3.66136E+00    0.2058792432597256
   6    3.11502E+00    0.1751582554086667
   7    2.72562E+00    0.1532623555516273
   8    2.39882E+00    0.1348861643085777
   9    2.11373E+00    0.1188552586944612
  10    1.92630E+00    0.1083160869784665
  11    1.80683E+00    0.1015984352471568
  12    1.64014E+00    0.0922253082681170
  13    1.41160E+00    0.0793744416357918
  14    1.23499E+00    0.0694439954555482
  15    1.16413E+00    0.0654594280592852
  16    1.13057E+00    0.0635719211006995
  17    1.07028E+00    0.0601821267040272
  18    9.98315E-01    0.0561354660882203
  19    9.41823E-01    0.0529589151290948
  20    8.95910E-01    0.0503771911878366
  21    8.46803E-01    0.0476159347706264
  22    7.97824E-01    0.0448618218630233
  23    7.55836E-01    0.0425008015548844
  24    7.21341E-01    0.0405611471514155
  25    6.90287E-01    0.0388149812466231
  26    6.62102E-01    0.0372301200853865
  27    6.35762E-01    0.0357490173653983
  28    6.16087E-01    0.0346426888933058
  29    5.96487E-01    0.0335405745658728
  30    5.87435E-01    0.0330315845691506
  31    5.74874E-01    0.0323252879467394
  32    5.70974E-01    0.0321059814332274
  33    5.60925E-01    0.0315409254449576
  34    5.60663E-01    0.0315261976542774
  35    4.99439E-01    0.0280835909733728
  36    5.65642E-01    0.0318061698302236
  37    4.06430E-01    0.0228536574507886
  38    4.85023E-01    0.0272729442869058
  39    3.64990E-01    0.0205234809080060
  40    6.80444E-01    0.0382614940551317
