  # July 4, 2014 12:22:22
 # jmin,jmax    0   50
 # Eau     0.00200000
 # r0,ra,rb,rdel,tol,Bau,mu   3.5000  25.0000  25.0000   4.0000  1.0000E-03  3.0130E-07  6.8548E+03
 # parity bigJ  0  0        1  0        1  1        2  0        2  1        2  2        3  0        3  1        3  2        3  3
 # jmin,jmax,maxlamb are            0          50         100
 # j and jp are          26          47
 # lam  B-lambda(j,jp)  angle
#   21     22.4535      7.3911
#   22      0.6844     13.0408
#   23      9.1883     17.0727
#   24      0.6827     20.4689
#   25      5.7171     23.5091
#   26      0.5393     26.3194
#   27      4.1461     28.9690
#   28      0.4124     31.5009
#   29      3.1086     33.9436
#   30      0.3083     36.3173
#   31      2.4154     38.6372
#   32      0.2197     40.9145
#   33      1.9778     43.1584
#   34      0.1485     45.3763
#   35      1.5139     47.5741
#   36      0.0966     49.7571
#   37      1.0726     51.9297
#   38      0.0592     54.0957
#   39      0.7621     56.2588
#   40      0.0324     58.4221
#   41      0.5468     60.5885
#   42      0.0167     62.7610
#   43      0.4022     64.9420
#   44      0.0099     67.1344
#   45      0.2856     69.3405
#   46      0.0065     71.5631
#   47      0.1703     73.8047
#   48      0.0041     76.0679
#   49      0.0944     78.3557
#   50      0.0025     80.6710
#   51      0.0609     83.0168
#   52      0.0013     85.3967
#   53      0.0349     87.8141
#   54      0.0005     90.2732
#   55      0.0125     92.7783
#   56      0.0001     95.3346
#   57      0.0024     97.9474
#   58      0.0000    100.6234
#   59      0.0003    103.3698
#   60      0.0000    106.1953
#   61      0.0001    109.1101
#   62      0.0000    112.1265
#   63      0.0001    115.2592
#   64      0.0000    118.5268
#   65      0.0001    121.9528
#   66      0.0000    125.5677
#   67      0.0000    129.4129
#   68      0.0000    133.5462
#   69      0.0000    138.0534
#   70      0.0000    143.0721
#   71      0.0000    148.8494
#   72      0.0000    155.9266
#   73      0.0000    166.1752
   0    4.16369E+01    1.0000000000000000
   1    3.61332E+01    0.8678172214001545
   2    2.78752E+01    0.6694835323970310
   3    2.01720E+01    0.4844740892856734
   4    1.47703E+01    0.3547414606641017
   5    1.15633E+01    0.2777184563543943
   6    9.67360E+00    0.2323324216577760
   7    8.40836E+00    0.2019449534885409
   8    7.44160E+00    0.1787259293448845
   9    6.63240E+00    0.1592914110651304
  10    5.91973E+00    0.1421750953334910
  11    5.29815E+00    0.1272465862787993
  12    4.78115E+00    0.1148296653336456
  13    4.37381E+00    0.1050465567435493
  14    4.06704E+00    0.0976786242394474
  15    3.82652E+00    0.0919021183519056
  16    3.59837E+00    0.0864225841962850
  17    3.35286E+00    0.0805261224911413
  18    3.11154E+00    0.0747302306938470
  19    2.91084E+00    0.0699099897826310
  20    2.75463E+00    0.0661583932557870
  21    2.62088E+00    0.0629460925487282
  22    2.49689E+00    0.0599681531738426
  23    2.38441E+00    0.0572666188293516
  24    2.28052E+00    0.0547716458197079
  25    2.17457E+00    0.0522269267394691
  26    2.06299E+00    0.0495471895222095
  27    1.95397E+00    0.0469288813436169
  28    1.85675E+00    0.0445938075697772
  29    1.77229E+00    0.0425653224904583
  30    1.69599E+00    0.0407328371786791
  31    1.62345E+00    0.0389906002712918
  32    1.55374E+00    0.0373163525722436
  33    1.48725E+00    0.0357195148926890
  34    1.42509E+00    0.0342266945387885
  35    1.36753E+00    0.0328442447048723
  36    1.31501E+00    0.0315829112985516
  37    1.26752E+00    0.0304422668466542
  38    1.22537E+00    0.0294299008956986
  39    1.18752E+00    0.0285207969400202
  40    1.15415E+00    0.0277193426450008
  41    1.12322E+00    0.0269766503496773
  42    1.08959E+00    0.0261688487110328
  43    1.05780E+00    0.0254053945332929
  44    1.02096E+00    0.0245205809513457
  45    9.61390E-01    0.0230898590615533
  46    9.59887E-01    0.0230537522578321
  47    9.04876E-01    0.0217325462875864
  48    9.43938E-01    0.0226707078686488
  49    8.81212E-01    0.0211642032429642
  50    1.03559E+00    0.0248720123935250
  51    7.63678E-01    0.0183413634290843
  52    1.21915E+00    0.0292805154895907
