  # July 4, 2014 12:22:22
 # jmin,jmax    0   50
 # Eau     0.00200000
 # r0,ra,rb,rdel,tol,Bau,mu   3.5000  25.0000  25.0000   4.0000  1.0000E-03  3.0130E-07  6.8548E+03
 # parity bigJ  0  0        1  0        1  1        2  0        2  1        2  2        3  0        3  1        3  2        3  3
 # jmin,jmax,maxlamb are            0          50         100
 # j and jp are          21          42
 # lam  B-lambda(j,jp)  angle
#   21     18.2374      8.6707
#   22      0.8292     15.3154
#   23      7.7175     20.0645
#   24      0.5290     24.0722
#   25      4.6600     27.6667
#   26      0.3936     30.9964
#   27      2.9827     34.1428
#   28      0.3060     37.1566
#   29      2.3165     40.0717
#   30      0.2303     42.9123
#   31      1.8572     45.6965
#   32      0.1650     48.4383
#   33      1.4270     51.1489
#   34      0.1153     53.8375
#   35      1.1163     56.5121
#   36      0.0794     59.1796
#   37      0.8828     61.8460
#   38      0.0515     64.5171
#   39      0.7253     67.1981
#   40      0.0299     69.8941
#   41      0.5884     72.6102
#   42      0.0165     75.3514
#   43      0.4118     78.1228
#   44      0.0102     80.9297
#   45      0.2622     83.7780
#   46      0.0067     86.6737
#   47      0.1760     89.6236
#   48      0.0041     92.6354
#   49      0.1113     95.7175
#   50      0.0024     98.8798
#   51      0.0691    102.1338
#   52      0.0013    105.4931
#   53      0.0515    108.9743
#   54      0.0005    112.5979
#   55      0.0321    116.3897
#   56      0.0001    120.3832
#   57      0.0117    124.6236
#   58      0.0000    129.1741
#   59      0.0022    134.1285
#   60      0.0000    139.6369
#   61      0.0003    145.9691
#   62      0.0000    153.7161
#   63      0.0002    164.9239
   0    3.97814E+01    1.0000000000000000
   1    3.21362E+01    0.8078200589628625
   2    2.26904E+01    0.5703776339511112
   3    1.59777E+01    0.4016365249317871
   4    1.21950E+01    0.3065490817943027
   5    9.91707E+00    0.2492888983529610
   6    8.22259E+00    0.2066941783207946
   7    6.83363E+00    0.1717793452111097
   8    5.80569E+00    0.1459396908760487
   9    5.09021E+00    0.1279544581230655
  10    4.50063E+00    0.1131338735924687
  11    3.98975E+00    0.1002917292885663
  12    3.60655E+00    0.0906590750426920
  13    3.34630E+00    0.0841172279409980
  14    3.17057E+00    0.0796997728809747
  15    3.01559E+00    0.0758038886222986
  16    2.83192E+00    0.0711869499626963
  17    2.63963E+00    0.0663533725798001
  18    2.47486E+00    0.0622113406633918
  19    2.32467E+00    0.0584360214984994
  20    2.17484E+00    0.0546698187625436
  21    2.04020E+00    0.0512851586355530
  22    1.93987E+00    0.0487633138198364
  23    1.85859E+00    0.0467200531375381
  24    1.79129E+00    0.0450282426278691
  25    1.71229E+00    0.0430424228515967
  26    1.65329E+00    0.0415593758564756
  27    1.56422E+00    0.0393204642966719
  28    1.51926E+00    0.0381901630884243
  29    1.41199E+00    0.0354936882511035
  30    1.37856E+00    0.0346533554588655
  31    1.25317E+00    0.0315013555737972
  32    1.22276E+00    0.0307370360200255
  33    1.09047E+00    0.0274115571017187
  34    1.08294E+00    0.0272223066945880
  35    9.35333E-01    0.0235117925519977
  36    1.00967E+00    0.0253803414133245
  37    8.45947E-01    0.0212648569642413
  38    9.88809E-01    0.0248560285058919
  39    7.46320E-01    0.0187605132687320
  40    1.12140E+00    0.0281890084810123
  41    5.49117E-01    0.0138033578134997
  42    1.46416E+00    0.0368050086289876
