  # July 4, 2014 12:22:22
 # jmin,jmax    0   50
 # Eau     0.00200000
 # r0,ra,rb,rdel,tol,Bau,mu   3.5000  25.0000  25.0000   4.0000  1.0000E-03  3.0130E-07  6.8548E+03
 # parity bigJ  0  0        1  0        1  1        2  0        2  1        2  2        3  0        3  1        3  2        3  3
 # jmin,jmax,maxlamb are            0          50         100
 # j and jp are          20          24
 # lam  B-lambda(j,jp)  angle
#    4    549.9731      5.1111
#    5     10.8126      9.5768
#    6    111.4638     13.0657
#    7      3.1624     16.2260
#    8     40.5637     19.2254
#    9      1.1272     22.1345
#   10     18.5458     24.9900
#   11      0.4985     27.8137
#   12      9.6083     30.6200
#   13      0.2645     33.4187
#   14      5.5601     36.2176
#   15      0.1663     39.0225
#   16      3.5514     41.8387
#   17      0.1128     44.6705
#   18      2.4905     47.5222
#   19      0.0817     50.3977
#   20      1.8510     53.3008
#   21      0.0628     56.2355
#   22      1.5230     59.2058
#   23      0.0503     62.2160
#   24      1.2511     65.2708
#   25      0.0413     68.3751
#   26      1.0817     71.5344
#   27      0.0342     74.7548
#   28      0.9717     78.0433
#   29      0.0280     81.4076
#   30      0.8427     84.8570
#   31      0.0225     88.4019
#   32      0.7113     92.0549
#   33      0.0178     95.8310
#   34      0.6600     99.7485
#   35      0.0135    103.8302
#   36      0.5992    108.1050
#   37      0.0098    112.6105
#   38      0.4520    117.3976
#   39      0.0070    122.5376
#   40      0.3677    128.1363
#   41      0.0046    134.3636
#   42      0.3930    141.5245
#   43      0.0025    150.2886
#   44      0.6117    162.9761
   0    2.00377E+02    1.0000000000000000
   1    1.79537E+02    0.8959982970905209
   2    1.66506E+02    0.8309646768232207
   3    1.52434E+02    0.7607389362521346
   4    1.41059E+02    0.7039706827262059
   5    1.27817E+02    0.6378819891818975
   6    1.17229E+02    0.5850412564741816
   7    1.06209E+02    0.5300472995890929
   8    9.73008E+01    0.4855893745542867
   9    8.83665E+01    0.4410019071268406
  10    8.13182E+01    0.4058265456657604
  11    7.39951E+01    0.3692799894028063
  12    6.83792E+01    0.3412531437693889
  13    6.25452E+01    0.3121378262469302
  14    5.80186E+01    0.2895476919979619
  15    5.32026E+01    0.2655127157572271
  16    4.96215E+01    0.2476409045412791
  17    4.56645E+01    0.2278933523737939
  18    4.27459E+01    0.2133276137625419
  19    3.94114E+01    0.1966863983925368
  20    3.70593E+01    0.1849481321202628
  21    3.42096E+01    0.1707264211917555
  22    3.23602E+01    0.1614970121221325
  23    2.98151E+01    0.1487953352645058
  24    2.83846E+01    0.1416563392889124
  25    2.60254E+01    0.1298823348267356
  26    2.49387E+01    0.1244588173853910
  27    2.27673E+01    0.1136223315196381
  28    2.19075E+01    0.1093314117776726
  29    1.98556E+01    0.0990913550180737
  30    1.91665E+01    0.0956524186223709
  31    1.71494E+01    0.0855856718706750
  32    1.67057E+01    0.0833712324793482
  33    1.46459E+01    0.0730916848447968
  34    1.43744E+01    0.0717366658380952
  35    1.22333E+01    0.0610515188515453
  36    1.21849E+01    0.0608099107963080
  37    9.81546E+00    0.0489850171219543
  38    1.00818E+01    0.0503144479921919
  39    7.08775E+00    0.0353721401064051
  40    8.52471E+00    0.0425434262767761
