  # July 4, 2014 12:22:22
 # jmin,jmax    0   50
 # Eau     0.00200000
 # r0,ra,rb,rdel,tol,Bau,mu   3.5000  25.0000  25.0000   4.0000  1.0000E-03  3.0130E-07  6.8548E+03
 # parity bigJ  0  0        1  0        1  1        2  0        2  1        2  2        3  0        3  1        3  2        3  3
 # jmin,jmax,maxlamb are            0          50         100
 # j and jp are          19          38
 # lam  B-lambda(j,jp)  angle
#   19     22.1118      9.0974
#   20      0.5916     16.1019
#   21      8.6564     21.1266
#   22      0.4274     25.3820
#   23      5.3038     29.2118
#   24      0.3080     32.7711
#   25      3.7434     36.1450
#   26      0.2131     39.3868
#   27      2.7426     42.5319
#   28      0.1486     45.6059
#   29      2.1209     48.6280
#   30      0.1062     51.6131
#   31      1.6467     54.5734
#   32      0.0746     57.5191
#   33      1.2746     60.4591
#   34      0.0522     63.4014
#   35      1.0370     66.3532
#   36      0.0375     69.3214
#   37      0.8722     72.3127
#   38      0.0271     75.3339
#   39      0.7525     78.3920
#   40      0.0191     81.4940
#   41      0.6310     84.6477
#   42      0.0127     87.8617
#   43      0.4650     91.1453
#   44      0.0080     94.5093
#   45      0.3040     97.9660
#   46      0.0051    101.5301
#   47      0.2067    105.2192
#   48      0.0031    109.0550
#   49      0.1452    113.0647
#   50      0.0018    117.2838
#   51      0.0956    121.7597
#   52      0.0009    126.5590
#   53      0.0733    131.7803
#   54      0.0004    137.5812
#   55      0.0633    144.2451
#   56      0.0001    152.3930
#   57      0.0540    164.1757
   0    4.79264E+01    1.0000000000000000
   1    3.60022E+01    0.7511968031230570
   2    2.46897E+01    0.5151593170065458
   3    1.77995E+01    0.3713914131454578
   4    1.41193E+01    0.2946028881122589
   5    1.13007E+01    0.2357921920702702
   6    9.24777E+00    0.1929576442854336
   7    7.85642E+00    0.1639266203842187
   8    7.01685E+00    0.1464088747314590
   9    6.16008E+00    0.1285320987022495
  10    5.47707E+00    0.1142808602832319
  11    4.84528E+00    0.1010982508052157
  12    4.50577E+00    0.0940143036758971
  13    4.07946E+00    0.0851191633580357
  14    3.79347E+00    0.0791520354890450
  15    3.43886E+00    0.0717529199386954
  16    3.26203E+00    0.0680633803347599
  17    2.96501E+00    0.0618658760912485
  18    2.84185E+00    0.0592960446108706
  19    2.60824E+00    0.0544217931332437
  20    2.53750E+00    0.0529457591925570
  21    2.32021E+00    0.0484119700629599
  22    2.26220E+00    0.0472014312570519
  23    2.04801E+00    0.0427323512783305
  24    2.02670E+00    0.0422876598752044
  25    1.81428E+00    0.0378554545260957
  26    1.84568E+00    0.0385107125735301
  27    1.61808E+00    0.0337618146797131
  28    1.70375E+00    0.0355493643147628
  29    1.45672E+00    0.0303948950308321
  30    1.60056E+00    0.0333962045801271
  31    1.30380E+00    0.0272042127904869
  32    1.54909E+00    0.0323223194287711
  33    1.09524E+00    0.0228524999183970
  34    1.56290E+00    0.0326103794504062
  35    8.84989E-01    0.0184655730218730
  36    1.66025E+00    0.0346416860595205
  37    7.02929E-01    0.0146668276396212
  38    2.02776E+00    0.0423097974081810
