  # July 4, 2014 12:22:22
 # jmin,jmax    0   50
 # Eau     0.00200000
 # r0,ra,rb,rdel,tol,Bau,mu   3.5000  25.0000  25.0000   4.0000  1.0000E-03  3.0130E-07  6.8548E+03
 # parity bigJ  0  0        1  0        1  1        2  0        2  1        2  2        3  0        3  1        3  2        3  3
 # jmin,jmax,maxlamb are            0          50         100
 # j and jp are           7          48
 # lam  B-lambda(j,jp)  angle
#   41      2.2607     19.0721
#   42      0.0013     33.9648
#   43      0.8775     44.6920
#   44      0.0012     53.8672
#   45      0.4845     62.2467
#   46      0.0009     70.1891
#   47      0.2639     77.9121
#   48      0.0005     85.5751
#   49      0.1375     93.3172
#   50      0.0003    101.2818
#   51      0.0851    109.6431
#   52      0.0001    118.6490
#   53      0.0636    128.7174
#   54      0.0000    140.7391
#   55      0.0540    157.7923
   0    9.66676E+00    1.0000000000000000
   1    6.39713E+00    0.6617661560443021
   2    4.06140E+00    0.4201407480375426
   3    2.52692E+00    0.2614034353997593
   4    1.93778E+00    0.2004577747888195
   5    1.52155E+00    0.1574005950601568
   6    1.35625E+00    0.1403006120386195
   7    1.06736E+00    0.1104159345413855
   8    1.00378E+00    0.1038387032015558
   9    7.96390E-01    0.0823843424630673
  10    8.00786E-01    0.0828390811547450
  11    6.08465E-01    0.0629440877477768
  12    6.65508E-01    0.0688450331560396
  13    4.58669E-01    0.0474480429451620
  14    6.15529E-01    0.0636748188160736
