  # July 4, 2014 12:22:22
 # jmin,jmax    0   50
 # Eau     0.00200000
 # r0,ra,rb,rdel,tol,Bau,mu   3.5000  25.0000  25.0000   4.0000  1.0000E-03  3.0130E-07  6.8548E+03
 # parity bigJ  0  0        1  0        1  1        2  0        2  1        2  2        3  0        3  1        3  2        3  3
 # jmin,jmax,maxlamb are            0          50         100
 # j and jp are          20          43
 # lam  B-lambda(j,jp)  angle
#   23     16.5932      9.1834
#   24      0.5358     16.2070
#   25      6.7845     21.2173
#   26      0.3567     25.4384
#   27      4.2440     29.2191
#   28      0.2412     32.7172
#   29      2.8933     36.0195
#   30      0.1607     39.1802
#   31      1.9174     42.2356
#   32      0.1095     45.2117
#   33      1.4256     48.1279
#   34      0.0741     50.9994
#   35      1.2000     53.8383
#   36      0.0490     56.6549
#   37      0.9960     59.4577
#   38      0.0325     62.2544
#   39      0.8245     65.0520
#   40      0.0218     67.8567
#   41      0.6328     70.6747
#   42      0.0149     73.5120
#   43      0.4065     76.3743
#   44      0.0101     79.2678
#   45      0.2513     82.1987
#   46      0.0064     85.1737
#   47      0.1727     88.2000
#   48      0.0038     91.2856
#   49      0.1094     94.4394
#   50      0.0022     97.6715
#   51      0.0681    100.9940
#   52      0.0012    104.4207
#   53      0.0502    107.9685
#   54      0.0005    111.6584
#   55      0.0301    115.5165
#   56      0.0001    119.5769
#   57      0.0104    123.8854
#   58      0.0000    128.5061
#   59      0.0018    133.5339
#   60      0.0000    139.1209
#   61      0.0002    145.5400
#   62      0.0000    153.3896
#   63      0.0002    164.7411
   0    3.71523E+01    1.0000000000000000
   1    3.01431E+01    0.8113400731383621
   2    2.14170E+01    0.5764663259560536
   3    1.51525E+01    0.4078488385246846
   4    1.15970E+01    0.3121464457532097
   5    9.43550E+00    0.2539680895356639
   6    7.77434E+00    0.2092560919484126
   7    6.35823E+00    0.1711396711080285
   8    5.32945E+00    0.1434487478360030
   9    4.74313E+00    0.1276671763850911
  10    4.38758E+00    0.1180970796848163
  11    4.06408E+00    0.1093898308930189
  12    3.71680E+00    0.1000422120708845
  13    3.36592E+00    0.0905979412644390
  14    3.06795E+00    0.0825775734051899
  15    2.83440E+00    0.0762913104290778
  16    2.62301E+00    0.0706015857341527
  17    2.42771E+00    0.0653448195302218
  18    2.28182E+00    0.0614179276110795
  19    2.17721E+00    0.0586023753533100
  20    2.07458E+00    0.0558398592212147
  21    1.95654E+00    0.0526628091127610
  22    1.84101E+00    0.0495531207692550
  23    1.73476E+00    0.0466931716110248
  24    1.64928E+00    0.0443924037488231
  25    1.56067E+00    0.0420073040943987
  26    1.50026E+00    0.0403814169980849
  27    1.41358E+00    0.0380481399530027
  28    1.38164E+00    0.0371885571632145
  29    1.29009E+00    0.0347243705262888
  30    1.28546E+00    0.0345996829973049
  31    1.18925E+00    0.0320100119121322
  32    1.19244E+00    0.0320958708866538
  33    1.07814E+00    0.0290196045732464
  34    1.09066E+00    0.0293563621412379
  35    8.96528E-01    0.0241311607858193
  36    9.66749E-01    0.0260212559957100
  37    7.50428E-01    0.0201986887132316
  38    9.37310E-01    0.0252288666079176
  39    5.37391E-01    0.0144645367772965
  40    1.40595E+00    0.0378429746231135
