  # July 4, 2014 12:22:22
 # jmin,jmax    0   50
 # Eau     0.00200000
 # r0,ra,rb,rdel,tol,Bau,mu   3.5000  25.0000  25.0000   4.0000  1.0000E-03  3.0130E-07  6.8548E+03
 # parity bigJ  0  0        1  0        1  1        2  0        2  1        2  2        3  0        3  1        3  2        3  3
 # jmin,jmax,maxlamb are            0          50         100
 # j and jp are          18          41
 # lam  B-lambda(j,jp)  angle
#   23     15.6456      9.8941
#   24      0.2599     17.4741
#   25      6.4249     22.8866
#   26      0.1904     27.4522
#   27      3.5261     31.5468
#   28      0.1345     35.3407
#   29      2.3853     38.9279
#   30      0.0978     42.3669
#   31      1.8697     45.6972
#   32      0.0704     48.9474
#   33      1.4401     52.1389
#   34      0.0500     55.2885
#   35      1.1146     58.4100
#   36      0.0363     61.5151
#   37      0.9001     64.6141
#   38      0.0269     67.7161
#   39      0.7623     70.8298
#   40      0.0191     73.9633
#   41      0.6226     77.1249
#   42      0.0125     80.3228
#   43      0.4367     83.5656
#   44      0.0079     86.8627
#   45      0.2773     90.2240
#   46      0.0051     93.6609
#   47      0.1892     97.1863
#   48      0.0031    100.8153
#   49      0.1267    104.5659
#   50      0.0018    108.4603
#   51      0.0798    112.5261
#   52      0.0010    116.7992
#   53      0.0601    121.3274
#   54      0.0004    126.1779
#   55      0.0437    131.4498
#   56      0.0001    137.3018
#   57      0.0215    144.0190
#   58      0.0000    152.2257
#   59      0.0079    164.0854
   0    3.68269E+01    1.0000000000000000
   1    2.83231E+01    0.7690866578848798
   2    1.93701E+01    0.5259777780816708
   3    1.38864E+01    0.3770714215231309
   4    1.09886E+01    0.2983850064470984
   5    9.06435E+00    0.2461339412150575
   6    7.40599E+00    0.2011029083925587
   7    6.09949E+00    0.1656260299650687
   8    5.25114E+00    0.1425899264569652
   9    4.60547E+00    0.1250571510470731
  10    4.07115E+00    0.1105483321411336
  11    3.59805E+00    0.0977016247040310
  12    3.28851E+00    0.0892963522763036
  13    3.09209E+00    0.0839627776622892
  14    2.96024E+00    0.0803824342749914
  15    2.75914E+00    0.0749219920124537
  16    2.60928E+00    0.0708526972502636
  17    2.42700E+00    0.0659029260397027
  18    2.31207E+00    0.0627820921115750
  19    2.12269E+00    0.0576396388273182
  20    2.03142E+00    0.0551611952551083
  21    1.85696E+00    0.0504239197346773
  22    1.79763E+00    0.0488130381992935
  23    1.62658E+00    0.0441683794727557
  24    1.57912E+00    0.0428796029253084
  25    1.40647E+00    0.0381914376377327
  26    1.37463E+00    0.0373268708945092
  27    1.19500E+00    0.0324490276706914
  28    1.21117E+00    0.0328881590893346
  29    1.01076E+00    0.0274462449464301
  30    1.10818E+00    0.0300915887716931
  31    8.90140E-01    0.0241709183369546
  32    1.06860E+00    0.0290168937159737
  33    7.71761E-01    0.0209564578103989
  34    1.18615E+00    0.0322088729429805
  35    5.31053E-01    0.0144202555942140
  36    1.54194E+00    0.0418699419060346
