  # July 4, 2014 12:22:22
 # jmin,jmax    0   50
 # Eau     0.00200000
 # r0,ra,rb,rdel,tol,Bau,mu   3.5000  25.0000  25.0000   4.0000  1.0000E-03  3.0130E-07  6.8548E+03
 # parity bigJ  0  0        1  0        1  1        2  0        2  1        2  2        3  0        3  1        3  2        3  3
 # jmin,jmax,maxlamb are            0          50         100
 # j and jp are          26          49
 # lam  B-lambda(j,jp)  angle
#   23     19.5110      7.5766
#   24      0.7517     13.3521
#   25      8.9515     17.4639
#   26      0.4823     20.9198
#   27      5.8474     24.0074
#   28      0.2274     26.8563
#   29      4.2593     29.5379
#   30      0.1375     32.0965
#   31      3.2920     34.5617
#   32      0.1001     36.9543
#   33      2.6479     39.2898
#   34      0.0765     41.5802
#   35      2.1950     43.8348
#   36      0.0581     46.0613
#   37      1.8099     48.2658
#   38      0.0422     50.4538
#   39      1.3385     52.6298
#   40      0.0287     54.7980
#   41      0.8372     56.9618
#   42      0.0185     59.1246
#   43      0.4590     61.2895
#   44      0.0113     63.4593
#   45      0.2228     65.6367
#   46      0.0066     67.8245
#   47      0.0951     70.0252
#   48      0.0040     72.2415
#   49      0.0512     74.4760
#   50      0.0023     76.7314
#   51      0.0392     79.0105
#   52      0.0011     81.3164
#   53      0.0228     83.6521
#   54      0.0003     86.0211
#   55      0.0074     88.4270
#   56      0.0001     90.8738
#   57      0.0012     93.3660
#   58      0.0000     95.9085
#   59      0.0002     98.5069
#   60      0.0000    101.1676
#   61      0.0001    103.8979
#   62      0.0000    106.7064
#   63      0.0000    109.6033
#   64      0.0000    112.6008
#   65      0.0000    115.7135
#   66      0.0000    118.9599
#   67      0.0000    122.3633
#   68      0.0000    125.9541
#   69      0.0000    129.7732
#   70      0.0000    133.8781
#   71      0.0000    138.3540
#   72      0.0000    143.3374
#   73      0.0000    149.0737
#   74      0.0000    156.1002
#   75      0.0000    166.2746
   0    4.12662E+01    1.0000000000000000
   1    3.58723E+01    0.8692919530323804
   2    2.74617E+01    0.6654767990433355
   3    1.92065E+01    0.4654292898977023
   4    1.32510E+01    0.3211098900374633
   5    9.97005E+00    0.2416035553459554
   6    8.48853E+00    0.2057020463569364
   7    7.67945E+00    0.1860955552002033
   8    6.84980E+00    0.1659907706351670
   9    5.87479E+00    0.1423633192773695
  10    4.96215E+00    0.1202473922168320
  11    4.32513E+00    0.1048106843430344
  12    3.98516E+00    0.0965720235119199
  13    3.79754E+00    0.0920254383788211
  14    3.61227E+00    0.0875360010167877
  15    3.38505E+00    0.0820297153888810
  16    3.15287E+00    0.0764032017319305
  17    2.95331E+00    0.0715674015415754
  18    2.79201E+00    0.0676585554926789
  19    2.66100E+00    0.0644839197224524
  20    2.55264E+00    0.0618579345457638
  21    2.45461E+00    0.0594824451699554
  22    2.35223E+00    0.0570015489698838
  23    2.24227E+00    0.0543369034914500
  24    2.13589E+00    0.0517588495601089
  25    2.04455E+00    0.0495455115469939
  26    1.96838E+00    0.0476995842689427
  27    1.89952E+00    0.0460309749947916
  28    1.83210E+00    0.0443972562872432
  29    1.76596E+00    0.0427944775377863
  30    1.70356E+00    0.0412822307323522
  31    1.64631E+00    0.0398949201833052
  32    1.59398E+00    0.0386268463547236
  33    1.54562E+00    0.0374548191696379
  34    1.50048E+00    0.0363611083567247
  35    1.45797E+00    0.0353308938405717
  36    1.41778E+00    0.0343568799864010
  37    1.37943E+00    0.0334276317487988
  38    1.34274E+00    0.0325385509897803
  39    1.30753E+00    0.0316851837980441
  40    1.27387E+00    0.0308697241964564
  41    1.24183E+00    0.0300932179048460
  42    1.21264E+00    0.0293858890776741
  43    1.18519E+00    0.0287206655765130
  44    1.15919E+00    0.0280904625227127
  45    1.13843E+00    0.0275874593281253
  46    1.10901E+00    0.0268745907461766
  47    1.06737E+00    0.0258653879324718
  48    1.08062E+00    0.0261865503869340
  49    1.06306E+00    0.0257611512594793
  50    1.14280E+00    0.0276934371932068
  51    1.16712E+00    0.0282827639538921
  52    1.29135E+00    0.0312932507297526
