  # July 4, 2014 12:22:22
 # jmin,jmax    0   50
 # Eau     0.00200000
 # r0,ra,rb,rdel,tol,Bau,mu   3.5000  25.0000  25.0000   4.0000  1.0000E-03  3.0130E-07  6.8548E+03
 # parity bigJ  0  0        1  0        1  1        2  0        2  1        2  2        3  0        3  1        3  2        3  3
 # jmin,jmax,maxlamb are            0          50         100
 # j and jp are          31          32
 # lam  B-lambda(j,jp)  angle
#    1   1251.7732      1.7908
#    2      8.9131      4.0054
#    3    219.1830      5.9424
#    4      5.5216      7.8125
#    5     96.4340      9.6558
#    6      3.5320     11.4867
#    7     53.8746     13.3118
#    8      2.5973     15.1346
#    9     34.5251     16.9574
#   10      1.9016     18.7818
#   11     23.1363     20.6090
#   12      1.5383     22.4400
#   13     16.3064     24.2757
#   14      1.2813     26.1167
#   15     11.6753     27.9638
#   16      0.9944     29.8178
#   17      8.4024     31.6792
#   18      0.7175     33.5489
#   19      6.3792     35.4274
#   20      0.4884     37.3154
#   21      4.7092     39.2138
#   22      0.3533     41.1232
#   23      3.5699     43.0443
#   24      0.2817     44.9781
#   25      2.8104     46.9253
#   26      0.2224     48.8869
#   27      2.1759     50.8637
#   28      0.1697     52.8567
#   29      1.7880     54.8670
#   30      0.1305     56.8957
#   31      1.4781     58.9439
#   32      0.1017     61.0130
#   33      1.1954     63.1042
#   34      0.0796     65.2191
#   35      0.9961     67.3591
#   36      0.0618     69.5261
#   37      0.8480     71.7219
#   38      0.0465     73.9484
#   39      0.7348     76.2080
#   40      0.0331     78.5030
#   41      0.6110     80.8362
#   42      0.0219     83.2105
#   43      0.4372     85.6293
#   44      0.0141     88.0963
#   45      0.2772     90.6158
#   46      0.0091     93.1925
#   47      0.1866     95.8320
#   48      0.0057     98.5406
#   49      0.1260    101.3256
#   50      0.0034    104.1958
#   51      0.0787    107.1615
#   52      0.0019    110.2350
#   53      0.0573    113.4317
#   54      0.0009    116.7703
#   55      0.0400    120.2751
#   56      0.0003    123.9775
#   57      0.0175    127.9198
#   58      0.0000    132.1618
#   59      0.0039    136.7919
#   60      0.0000    141.9519
#   61      0.0005    147.8969
#   62      0.0000    155.1853
#   63      0.0002    165.7482
   0    1.78582E+02    1.0000000000000000
   1    1.63624E+02    0.9162357813083596
   2    1.43917E+02    0.8058847898298116
   3    1.27379E+02    0.7132767975673366
   4    1.14717E+02    0.6423737425673941
   5    1.04265E+02    0.5838469453735859
   6    9.53321E+01    0.5338265765426990
   7    8.79950E+01    0.4927415794626174
   8    8.22030E+01    0.4603082992901763
   9    7.74203E+01    0.4335265995803739
  10    7.32051E+01    0.4099232075493655
  11    6.95236E+01    0.3893082761160740
  12    6.63488E+01    0.3715301868335700
  13    6.35169E+01    0.3556728780192812
  14    6.08955E+01    0.3409934275641470
  15    5.84557E+01    0.3273313971678519
  16    5.62477E+01    0.3149674978429134
  17    5.42621E+01    0.3038488210421459
  18    5.24064E+01    0.2934578515366937
  19    5.06472E+01    0.2836069139219113
  20    4.90217E+01    0.2745043658898470
  21    4.75184E+01    0.2660866790219327
  22    4.61020E+01    0.2581553917204578
  23    4.47591E+01    0.2506355636360050
  24    4.35020E+01    0.2435961722432821
  25    4.23011E+01    0.2368716512131128
  26    4.11730E+01    0.2305545283308924
  27    4.00872E+01    0.2244742101604779
  28    3.90958E+01    0.2189228068647927
  29    3.81092E+01    0.2133983207199990
  30    3.72046E+01    0.2083330526365458
  31    3.62549E+01    0.2030150183627402
  32    3.54148E+01    0.1983107026765499
  33    3.45359E+01    0.1933888579666137
  34    3.38026E+01    0.1892830751276587
  35    3.30202E+01    0.1849016053518638
  36    3.23755E+01    0.1812913985514725
  37    3.16296E+01    0.1771147656301355
  38    3.10428E+01    0.1738289137167309
  39    3.02902E+01    0.1696144805084442
  40    2.97626E+01    0.1666603253300138
  41    2.90117E+01    0.1624553859180527
  42    2.85468E+01    0.1598519991790454
  43    2.77911E+01    0.1556202898369024
  44    2.74307E+01    0.1536022540886869
  45    2.65942E+01    0.1489183539263284
  46    2.64234E+01    0.1479617079187354
  47    2.54521E+01    0.1425228816502010
  48    2.54496E+01    0.1425091293912178
  49    2.43376E+01    0.1362821204033008
  50    2.45389E+01    0.1374093064475610
  51    2.34131E+01    0.1311050655464021
  52    2.38164E+01    0.1333637010800222
  53    2.25175E+01    0.1260903893194264
  54    2.31762E+01    0.1297786176941798
  55    2.16075E+01    0.1209947440702608
  56    2.27141E+01    0.1271911053378764
  57    2.07727E+01    0.1163201074030048
  58    2.26835E+01    0.1270194697107103
  59    1.96791E+01    0.1101964111979159
  60    2.36438E+01    0.1323968789312227
  61    1.78899E+01    0.1001774975881421
  62    3.07362E+01    0.1721118387900602
