  # July 4, 2014 12:22:22
 # jmin,jmax    0   50
 # Eau     0.00200000
 # r0,ra,rb,rdel,tol,Bau,mu   3.5000  25.0000  25.0000   4.0000  1.0000E-03  3.0130E-07  6.8548E+03
 # parity bigJ  0  0        1  0        1  1        2  0        2  1        2  2        3  0        3  1        3  2        3  3
 # jmin,jmax,maxlamb are            0          50         100
 # j and jp are          22          25
 # lam  B-lambda(j,jp)  angle
#    3    282.9740      4.1422
#    4      1.5290      7.9400
#    5     86.2860     10.9797
#    6      1.0940     13.7764
#    7     45.5178     16.4582
#    8      0.8125     19.0775
#    9     28.1535     21.6610
#   10      0.6180     24.2241
#   11     19.0402     26.7770
#   12      0.4671     29.3265
#   13     13.4042     31.8780
#   14      0.3511     34.4355
#   15      9.6792     37.0026
#   16      0.2758     39.5824
#   17      7.1229     42.1777
#   18      0.2236     44.7911
#   19      5.3208     47.4254
#   20      0.1815     50.0831
#   21      4.0867     52.7669
#   22      0.1453     55.4797
#   23      3.1168     58.2245
#   24      0.1151     61.0043
#   25      2.4782     63.8226
#   26      0.0908     66.6831
#   27      2.0037     69.5899
#   28      0.0712     72.5476
#   29      1.6517     75.5611
#   30      0.0558     78.6363
#   31      1.4113     81.7796
#   32      0.0433     84.9984
#   33      1.1893     88.3014
#   34      0.0331     91.6986
#   35      1.0207     95.2022
#   36      0.0249     98.8266
#   37      0.9135    102.5893
#   38      0.0181    106.5123
#   39      0.8397    110.6234
#   40      0.0125    114.9591
#   41      0.7906    119.5684
#   42      0.0079    124.5203
#   43      0.7386    129.9169
#   44      0.0044    135.9224
#   45      0.6655    142.8317
#   46      0.0020    151.2913
#   47      0.7877    163.5418
   0    1.49005E+02    1.0000000000000000
   1    1.14766E+02    0.7702164313278594
   2    9.47172E+01    0.6356667136144071
   3    7.67607E+01    0.5151564645418697
   4    6.52146E+01    0.4376686342905308
   5    5.49900E+01    0.3690488597761424
   6    4.89267E+01    0.3283570790828232
   7    4.26071E+01    0.2859452097629514
   8    3.91464E+01    0.2627194569814997
   9    3.48536E+01    0.2339099255134340
  10    3.25472E+01    0.2184310134993051
  11    2.93108E+01    0.1967109078410493
  12    2.77886E+01    0.1864947114222224
  13    2.52195E+01    0.1692531854952884
  14    2.41842E+01    0.1623051519357476
  15    2.20086E+01    0.1477038799117779
  16    2.13570E+01    0.1433311908467006
  17    1.94733E+01    0.1306893558684746
  18    1.91037E+01    0.1282085379598256
  19    1.74305E+01    0.1169797096131744
  20    1.73108E+01    0.1161763864489612
  21    1.57799E+01    0.1059024238456834
  22    1.58066E+01    0.1060813337674659
  23    1.43744E+01    0.0964694067481454
  24    1.45598E+01    0.0977140063633039
  25    1.32260E+01    0.0887624467313815
  26    1.35219E+01    0.0907482722132176
  27    1.22149E+01    0.0819769683593311
  28    1.26143E+01    0.0846571584510865
  29    1.13378E+01    0.0760901323435266
  30    1.18651E+01    0.0796288004495212
  31    1.06040E+01    0.0711657881693214
  32    1.12776E+01    0.0756864582011495
  33    9.91783E+00    0.0665605833642648
  34    1.08137E+01    0.0725729055429216
  35    9.35889E+00    0.0628094504372883
  36    1.05167E+01    0.0705796211198523
  37    8.83385E+00    0.0592857432213760
  38    1.03585E+01    0.0695181363314857
  39    8.32549E+00    0.0558740559090861
  40    1.04918E+01    0.0704127330575583
  41    7.68270E+00    0.0515601619571317
  42    1.12579E+01    0.0755540691989274
  43    6.61598E+00    0.0444012037846592
  44    1.51478E+01    0.1016602322679494
