  # July 4, 2014 12:22:22
 # jmin,jmax    0   50
 # Eau     0.00200000
 # r0,ra,rb,rdel,tol,Bau,mu   3.5000  25.0000  25.0000   4.0000  1.0000E-03  3.0130E-07  6.8548E+03
 # parity bigJ  0  0        1  0        1  1        2  0        2  1        2  2        3  0        3  1        3  2        3  3
 # jmin,jmax,maxlamb are            0          50         100
 # j and jp are          23          48
 # lam  B-lambda(j,jp)  angle
#   25     14.8804      8.4713
#   26      0.3376     14.9233
#   27      6.3466     19.5113
#   28      0.2575     23.3643
#   29      4.1274     26.8045
#   30      0.1703     29.9775
#   31      2.9801     32.9638
#   32      0.1193     35.8130
#   33      2.3502     38.5588
#   34      0.0818     41.2248
#   35      1.8799     43.8288
#   36      0.0538     46.3843
#   37      1.4648     48.9023
#   38      0.0336     51.3915
#   39      1.1233     53.8595
#   40      0.0196     56.3125
#   41      0.8455     58.7563
#   42      0.0120     61.1957
#   43      0.6248     63.6354
#   44      0.0085     66.0797
#   45      0.4201     68.5326
#   46      0.0056     70.9980
#   47      0.2329     73.4799
#   48      0.0033     75.9820
#   49      0.1199     78.5085
#   50      0.0020     81.0634
#   51      0.0720     83.6512
#   52      0.0010     86.2763
#   53      0.0398     88.9440
#   54      0.0004     91.6596
#   55      0.0142     94.4294
#   56      0.0001     97.2604
#   57      0.0028    100.1604
#   58      0.0000    103.1385
#   59      0.0004    106.2057
#   60      0.0000    109.3747
#   61      0.0001    112.6611
#   62      0.0000    116.0843
#   63      0.0001    119.6687
#   64      0.0000    123.4461
#   65      0.0001    127.4593
#   66      0.0000    131.7684
#   67      0.0000    136.4624
#   68      0.0000    141.6839
#   69      0.0000    147.6889
#   70      0.0000    155.0386
#   71      0.0000    165.6742
   0    3.41619E+01    1.0000000000000000
   1    2.87163E+01    0.8405949266303315
   2    2.08813E+01    0.6112461630959725
   3    1.41582E+01    0.4144427711354411
   4    1.00813E+01    0.2951030216242533
   5    8.09394E+00    0.2369288346518493
   6    7.00208E+00    0.2049674087121801
   7    6.10651E+00    0.1787521079379043
   8    5.28646E+00    0.1547470400645383
   9    4.61648E+00    0.1351352091673597
  10    4.12186E+00    0.1206564530464732
  11    3.74658E+00    0.1096712127698756
  12    3.41824E+00    0.1000600011812925
  13    3.11917E+00    0.0913054773802850
  14    2.88183E+00    0.0843578744142600
  15    2.71446E+00    0.0794585664406105
  16    2.57196E+00    0.0752872410531364
  17    2.41367E+00    0.0706538214221385
  18    2.24998E+00    0.0658623159148589
  19    2.11024E+00    0.0617716986170522
  20    1.99696E+00    0.0584556317803073
  21    1.89266E+00    0.0554026451513056
  22    1.79104E+00    0.0524279584318077
  23    1.69973E+00    0.0497550660452263
  24    1.62347E+00    0.0475227508983555
  25    1.55721E+00    0.0455832132537275
  26    1.49483E+00    0.0437571890895846
  27    1.43426E+00    0.0419843164243629
  28    1.37702E+00    0.0403087229146734
  29    1.32353E+00    0.0387427305149498
  30    1.27362E+00    0.0372820112961176
  31    1.22607E+00    0.0358898388817891
  32    1.18054E+00    0.0345571377608051
  33    1.13647E+00    0.0332672467068370
  34    1.09464E+00    0.0320426229094104
  35    1.05494E+00    0.0308804669582843
  36    1.01927E+00    0.0298364982540453
  37    9.89112E-01    0.0289536511834108
  38    9.62493E-01    0.0281744500301371
  39    9.44913E-01    0.0276598265497606
  40    9.35780E-01    0.0273925073209268
  41    8.94439E-01    0.0261823517852710
  42    9.29406E-01    0.0272059207946948
  43    8.75298E-01    0.0256220455812720
  44    9.25957E-01    0.0271049568305815
  45    7.63904E-01    0.0223612642228795
  46    1.21491E+00    0.0355634002386280
