  # July 4, 2014 12:22:22
 # jmin,jmax    0   50
 # Eau     0.00200000
 # r0,ra,rb,rdel,tol,Bau,mu   3.5000  25.0000  25.0000   4.0000  1.0000E-03  3.0130E-07  6.8548E+03
 # parity bigJ  0  0        1  0        1  1        2  0        2  1        2  2        3  0        3  1        3  2        3  3
 # jmin,jmax,maxlamb are            0          50         100
 # j and jp are          18          20
 # lam  B-lambda(j,jp)  angle
#    2   2286.8710      4.1603
#    3     28.7780      8.3303
#    4    275.1422     11.7922
#    5      8.2096     15.0493
#    6     82.7551     18.2185
#    7      2.1397     21.3456
#    8     33.0509     24.4541
#    9      0.7218     27.5575
#   10     15.6444     30.6653
#   11      0.3213     33.7842
#   12      8.2882     36.9200
#   13      0.1734     40.0775
#   14      4.8817     43.2614
#   15      0.1082     46.4761
#   16      3.1627     49.7263
#   17      0.0735     53.0165
#   18      2.2681     56.3518
#   19      0.0533     59.7377
#   20      1.7043     63.1800
#   21      0.0406     66.6854
#   22      1.4235     70.2612
#   23      0.0320     73.9160
#   24      1.1982     77.6595
#   25      0.0258     81.5030
#   26      1.0484     85.4599
#   27      0.0208     89.5465
#   28      0.9729     93.7822
#   29      0.0164     98.1914
#   30      0.8891    102.8052
#   31      0.0126    107.6638
#   32      0.7974    112.8217
#   33      0.0093    118.3552
#   34      0.7985    124.3777
#   35      0.0062    131.0710
#   36      0.8936    138.7623
#   37      0.0034    148.1690
#   38      1.2242    161.7815
   0    4.46861E+02    1.0000000000000000
   1    4.16827E+02    0.9327883113455134
   2    4.00824E+02    0.8969770658074303
   3    3.77997E+02    0.8458939783513079
   4    3.58933E+02    0.8032322739686782
   5    3.36656E+02    0.7533785161411753
   6    3.17993E+02    0.7116155325094241
   7    2.97923E+02    0.6667020725293921
   8    2.81243E+02    0.6293739420074691
   9    2.63436E+02    0.5895243169365845
  10    2.48855E+02    0.5568947121990980
  11    2.33206E+02    0.5218746111602569
  12    2.20378E+02    0.4931684318149254
  13    2.06561E+02    0.4622482132321832
  14    1.95311E+02    0.4370733367373037
  15    1.82992E+02    0.4095059602946659
  16    1.73001E+02    0.3871472820697122
  17    1.61968E+02    0.3624569554166097
  18    1.53071E+02    0.3425472745613170
  19    1.43086E+02    0.3202015391667579
  20    1.35072E+02    0.3022684824511990
  21    1.25893E+02    0.2817281268816222
  22    1.18684E+02    0.2655945897069110
  23    1.10158E+02    0.2465160304659980
  24    1.03641E+02    0.2319309389560744
  25    9.55951E+01    0.2139255720092574
  26    8.96429E+01    0.2006056242680937
  27    8.20557E+01    0.1836268062350463
  28    7.66329E+01    0.1714915170940810
  29    6.93091E+01    0.1551021106880044
  30    6.43828E+01    0.1440779072166938
  31    5.71631E+01    0.1279213237456241
  32    5.27204E+01    0.1179792560800385
  33    4.51868E+01    0.1011204998994617
  34    4.14079E+01    0.0926638431499762
  35    3.23020E+01    0.0722863572477424
  36    3.12433E+01    0.0699172188693482
