  # July 4, 2014 12:22:22
 # jmin,jmax    0   50
 # Eau     0.00200000
 # r0,ra,rb,rdel,tol,Bau,mu   3.5000  25.0000  25.0000   4.0000  1.0000E-03  3.0130E-07  6.8548E+03
 # parity bigJ  0  0        1  0        1  1        2  0        2  1        2  2        3  0        3  1        3  2        3  3
 # jmin,jmax,maxlamb are            0          50         100
 # j and jp are          32          43
 # lam  B-lambda(j,jp)  angle
#   11     74.7037      5.0512
#   12      6.8136      9.0225
#   13     32.4307     11.9220
#   14      3.7170     14.4133
#   15     20.0205     16.6819
#   16      2.7597     18.8099
#   17     13.3320     20.8417
#   18      2.1722     22.8046
#   19      9.4338     24.7162
#   20      1.6354     26.5889
#   21      6.7931     28.4318
#   22      1.2670     30.2518
#   23      5.2777     32.0540
#   24      1.0043     33.8428
#   25      3.9259     35.6215
#   26      0.7368     37.3931
#   27      2.7452     39.1599
#   28      0.4871     40.9242
#   29      2.0567     42.6877
#   30      0.3143     44.4521
#   31      1.7406     46.2189
#   32      0.2113     47.9896
#   33      1.4728     49.7654
#   34      0.1457     51.5475
#   35      1.1269     53.3372
#   36      0.1003     55.1357
#   37      0.8824     56.9440
#   38      0.0672     58.7633
#   39      0.7318     60.5948
#   40      0.0429     62.4395
#   41      0.5229     64.2988
#   42      0.0272     66.1737
#   43      0.3254     68.0657
#   44      0.0176     69.9759
#   45      0.2180     71.9059
#   46      0.0112     73.8570
#   47      0.1396     75.8309
#   48      0.0069     77.8292
#   49      0.0793     79.8538
#   50      0.0041     81.9066
#   51      0.0545     83.9898
#   52      0.0020     86.1056
#   53      0.0358     88.2567
#   54      0.0006     90.4459
#   55      0.0142     92.6763
#   56      0.0001     94.9514
#   57      0.0028     97.2753
#   58      0.0000     99.6524
#   59      0.0003    102.0878
#   60      0.0000    104.5875
#   61      0.0001    107.1584
#   62      0.0000    109.8085
#   63      0.0001    112.5474
#   64      0.0000    115.3868
#   65      0.0001    118.3406
#   66      0.0000    121.4265
#   67      0.0000    124.6669
#   68      0.0000    128.0911
#   69      0.0000    131.7382
#   70      0.0000    135.6638
#   71      0.0000    139.9499
#   72      0.0000    144.7279
#   73      0.0000    150.2345
#   74      0.0000    156.9872
#   75      0.0000    166.7746
   0    8.44814E+01    1.0000000000000000
   1    7.62824E+01    0.9029488423435356
   2    6.34772E+01    0.7513746145699548
   3    5.05432E+01    0.5982758511404472
   4    4.01282E+01    0.4749947643980232
   5    3.25244E+01    0.3849888903614358
   6    2.69040E+01    0.3184608720418192
   7    2.25379E+01    0.2667789696954210
   8    1.91077E+01    0.2261762922307230
   9    1.64884E+01    0.1951715897060610
  10    1.45482E+01    0.1722059613229017
  11    1.30924E+01    0.1549736248553509
  12    1.19008E+01    0.1408691186995965
  13    1.08235E+01    0.1281174403029063
  14    9.83607E+00    0.1164287888890271
  15    8.97977E+00    0.1062928892909931
  16    8.27071E+00    0.0978998045022930
  17    7.68843E+00    0.0910073069224747
  18    7.21390E+00    0.0853903827231906
  19    6.83385E+00    0.0808917269776885
  20    6.52168E+00    0.0771965858004881
  21    6.24204E+00    0.0738865109982322
  22    5.96610E+00    0.0706202215148134
  23    5.67445E+00    0.0671679805049472
  24    5.36616E+00    0.0635187858477229
  25    5.07351E+00    0.0600547761734745
  26    4.84328E+00    0.0573295513678478
  27    4.68873E+00    0.0555001387452251
  28    4.57477E+00    0.0541511625978679
  29    4.45757E+00    0.0527638889004175
  30    4.32460E+00    0.0511899683343546
  31    4.18966E+00    0.0495926640199318
  32    4.06450E+00    0.0481112136703631
  33    3.94722E+00    0.0467229443659187
  34    3.83237E+00    0.0453634266274517
  35    3.72041E+00    0.0440381718933955
  36    3.61705E+00    0.0428147685405847
  37    3.52646E+00    0.0417424172705925
  38    3.44915E+00    0.0408273266171453
  39    3.38189E+00    0.0400311452218328
  40    3.32059E+00    0.0393055926455411
  41    3.26141E+00    0.0386050200121028
  42    3.20154E+00    0.0378963959211561
  43    3.13902E+00    0.0371563167784237
  44    3.07416E+00    0.0363886077956029
  45    3.00523E+00    0.0355726321180166
  46    2.93266E+00    0.0347136536562841
  47    2.86146E+00    0.0338709087003802
  48    2.78294E+00    0.0329414422623545
  49    2.70689E+00    0.0320412528380743
  50    2.64944E+00    0.0313612615162718
  51    2.55661E+00    0.0302624283103503
  52    2.52518E+00    0.0298903615796606
  53    2.44256E+00    0.0289124118800193
  54    2.40917E+00    0.0285172046292444
  55    2.26775E+00    0.0268431747850368
  56    2.28373E+00    0.0270323851195880
  57    2.10442E+00    0.0249098395290982
  58    2.11748E+00    0.0250644866231794
  59    1.80916E+00    0.0214149039001073
  60    2.13252E+00    0.0252424446605095
  61    1.64960E+00    0.0195261987874656
  62    2.27387E+00    0.0269156437020317
  63    1.18141E+00    0.0139842884568879
  64    2.56528E+00    0.0303649758826058
