  # July 4, 2014 12:22:22
 # jmin,jmax    0   50
 # Eau     0.00200000
 # r0,ra,rb,rdel,tol,Bau,mu   3.5000  25.0000  25.0000   4.0000  1.0000E-03  3.0130E-07  6.8548E+03
 # parity bigJ  0  0        1  0        1  1        2  0        2  1        2  2        3  0        3  1        3  2        3  3
 # jmin,jmax,maxlamb are            0          50         100
 # j and jp are          16          45
 # lam  B-lambda(j,jp)  angle
#   29      9.7896     11.2273
#   30      0.1112     19.7998
#   31      4.1205     25.8986
#   32      0.0747     31.0273
#   33      2.3891     35.6155
#   34      0.0563     39.8583
#   35      1.4666     43.8639
#   36      0.0410     47.7002
#   37      1.0326     51.4131
#   38      0.0283     55.0362
#   39      0.8238     58.5951
#   40      0.0184     62.1100
#   41      0.5978     65.5981
#   42      0.0112     69.0740
#   43      0.3847     72.5510
#   44      0.0066     76.0416
#   45      0.2727     79.5576
#   46      0.0040     83.1112
#   47      0.1985     86.7148
#   48      0.0025     90.3818
#   49      0.1179     94.1269
#   50      0.0015     97.9669
#   51      0.0692    101.9213
#   52      0.0008    106.0137
#   53      0.0495    110.2734
#   54      0.0003    114.7378
#   55      0.0289    119.4566
#   56      0.0001    124.4992
#   57      0.0100    129.9679
#   58      0.0000    136.0260
#   59      0.0019    142.9665
#   60      0.0000    151.4314
#   61      0.0004    163.6458
   0    2.59858E+01    1.0000000000000000
   1    2.07088E+01    0.7969283299871536
   2    1.44555E+01    0.5562859964272593
   3    1.01297E+01    0.3898151938700617
   4    7.60571E+00    0.2926873558483759
   5    6.03795E+00    0.2323560679316730
   6    4.93710E+00    0.1899923474723422
   7    4.09373E+00    0.1575372178935859
   8    3.49256E+00    0.1344027849201243
   9    3.08848E+00    0.1188526362899715
  10    2.81252E+00    0.1082332363473418
  11    2.62996E+00    0.1012075197673557
  12    2.46735E+00    0.0949498670675265
  13    2.25752E+00    0.0868753490414629
  14    2.04674E+00    0.0787638404943496
  15    1.88965E+00    0.0727186233899133
  16    1.78055E+00    0.0685200074164164
  17    1.67319E+00    0.0643886479095905
  18    1.57287E+00    0.0605281729525629
  19    1.46587E+00    0.0564103006196977
  20    1.38623E+00    0.0533456084360482
  21    1.28430E+00    0.0494230055433212
  22    1.22628E+00    0.0471902618723003
  23    1.11372E+00    0.0428587265708442
  24    1.07692E+00    0.0414427026111356
  25    9.46386E-01    0.0364193654389614
  26    9.23220E-01    0.0355278758506590
  27    7.82138E-01    0.0300986901566299
  28    7.74316E-01    0.0297976786861507
  29    6.10393E-01    0.0234894936697589
  30    7.66530E-01    0.0294980607058693
  31    5.29067E-01    0.0203598522746431
  32    9.15258E-01    0.0352214895102071
