  # July 4, 2014 12:22:22
 # jmin,jmax    0   50
 # Eau     0.00200000
 # r0,ra,rb,rdel,tol,Bau,mu   3.5000  25.0000  25.0000   4.0000  1.0000E-03  3.0130E-07  6.8548E+03
 # parity bigJ  0  0        1  0        1  1        2  0        2  1        2  2        3  0        3  1        3  2        3  3
 # jmin,jmax,maxlamb are            0          50         100
 # j and jp are          18          38
 # lam  B-lambda(j,jp)  angle
#   20      9.8541      9.5806
#   21      0.6234     16.9509
#   22      3.8113     22.2330
#   23      0.4219     26.7032
#   24      2.4310     30.7243
#   25      0.2768     34.4602
#   26      1.8648     38.0011
#   27      0.1772     41.4032
#   28      1.4956     44.7045
#   29      0.1082     47.9322
#   30      1.1268     51.1068
#   31      0.0661     54.2445
#   32      0.8476     57.3586
#   33      0.0423     60.4603
#   34      0.6770     63.5595
#   35      0.0278     66.6650
#   36      0.4869     69.7853
#   37      0.0196     72.9283
#   38      0.3346     76.1021
#   39      0.0151     79.3149
#   40      0.2716     82.5751
#   41      0.0116     85.8920
#   42      0.2299     89.2757
#   43      0.0085     92.7373
#   44      0.1980     96.2900
#   45      0.0058     99.9489
#   46      0.1634    103.7321
#   47      0.0038    107.6620
#   48      0.1250    111.7664
#   49      0.0023    116.0816
#   50      0.1188    120.6560
#   51      0.0012    125.5574
#   52      0.1130    130.8862
#   53      0.0005    136.8030
#   54      0.0760    143.5962
#   55      0.0001    151.8979
#   56      0.0492    163.8979
   0    2.48485E+01    1.0000000000000000
   1    1.77754E+01    0.7153516366626957
   2    1.21132E+01    0.4874832979382290
   3    8.34791E+00    0.3359525857551352
   4    6.08548E+00    0.2449035258570555
   5    4.86461E+00    0.1957708662784175
   6    4.20303E+00    0.1691464741406058
   7    3.62500E+00    0.1458841793548127
   8    3.22059E+00    0.1296092793332704
   9    2.71507E+00    0.1092651046478477
  10    2.46269E+00    0.0991081576673500
  11    2.15849E+00    0.0868661997486354
  12    1.96264E+00    0.0789843940226584
  13    1.69192E+00    0.0680895144514285
  14    1.61706E+00    0.0650766824770166
  15    1.43029E+00    0.0575603759132521
  16    1.43417E+00    0.0577165378360228
  17    1.23958E+00    0.0498854798247914
  18    1.23500E+00    0.0497010866460434
  19    1.02690E+00    0.0413264511212816
  20    1.08267E+00    0.0435709214365025
  21    8.99154E-01    0.0361854835753056
  22    9.70217E-01    0.0390453211463638
  23    7.90286E-01    0.0318041844968458
  24    8.66495E-01    0.0348711546183658
  25    7.02405E-01    0.0282675157211418
  26    7.95688E-01    0.0320216075956500
  27    6.24198E-01    0.0251201546103184
  28    7.57565E-01    0.0304873643496312
  29    5.62581E-01    0.0226404589339757
  30    7.37996E-01    0.0296998465973720
  31    5.29204E-01    0.0212972521696962
  32    7.90234E-01    0.0318021211871953
  33    5.33875E-01    0.0214852168347862
  34    8.12133E-01    0.0326834031675009
  35    4.70423E-01    0.0189316621893430
  36    1.09027E+00    0.0438767858439388
