  # July 4, 2014 12:22:22
 # jmin,jmax    0   50
 # Eau     0.00200000
 # r0,ra,rb,rdel,tol,Bau,mu   3.5000  25.0000  25.0000   4.0000  1.0000E-03  3.0130E-07  6.8548E+03
 # parity bigJ  0  0        1  0        1  1        2  0        2  1        2  2        3  0        3  1        3  2        3  3
 # jmin,jmax,maxlamb are            0          50         100
 # j and jp are          23          37
 # lam  B-lambda(j,jp)  angle
#   14     26.6543      7.2132
#   15      2.5715     12.8233
#   16      9.1548     16.8835
#   17      1.3497     20.3476
#   18      5.2439     23.4844
#   19      0.7539     26.4142
#   20      3.4639     29.2027
#   21      0.4187     31.8902
#   22      2.4775     34.5037
#   23      0.2230     37.0622
#   24      1.8061     39.5797
#   25      0.1224     42.0670
#   26      1.4210     44.5328
#   27      0.0810     46.9841
#   28      1.1588     49.4269
#   29      0.0640     51.8662
#   30      0.9088     54.3067
#   31      0.0523     56.7524
#   32      0.7698     59.2072
#   33      0.0421     61.6748
#   34      0.6747     64.1586
#   35      0.0340     66.6621
#   36      0.4848     69.1888
#   37      0.0275     71.7424
#   38      0.3294     74.3264
#   39      0.0219     76.9450
#   40      0.2691     79.6021
#   41      0.0168     82.3025
#   42      0.2278     85.0510
#   43      0.0125     87.8533
#   44      0.1962     90.7154
#   45      0.0088     93.6445
#   46      0.1557     96.6487
#   47      0.0059     99.7373
#   48      0.1153    102.9215
#   49      0.0036    106.2147
#   50      0.1077    109.6329
#   51      0.0019    113.1963
#   52      0.0917    116.9305
#   53      0.0008    120.8685
#   54      0.0494    125.0552
#   55      0.0003    129.5534
#   56      0.0185    134.4561
#   57      0.0001    139.9127
#   58      0.0083    146.1913
#   59      0.0000    153.8797
#   60      0.0050    165.0116
   0    3.86591E+01    1.0000000000000000
   1    3.17743E+01    0.8219107992757172
   2    2.43561E+01    0.6300221879565793
   3    1.91886E+01    0.4963547201440317
   4    1.54924E+01    0.4007451688653656
   5    1.27924E+01    0.3309025634737731
   6    1.08165E+01    0.2797925053651460
   7    9.10088E+00    0.2354136356848825
   8    7.70413E+00    0.1992838367729313
   9    6.65415E+00    0.1721237466737533
  10    5.86113E+00    0.1516105800822980
  11    5.26859E+00    0.1362834231665205
  12    4.76939E+00    0.1233704335756334
  13    4.24801E+00    0.1098837824642614
  14    3.83220E+00    0.0991281015594437
  15    3.52020E+00    0.0910575691203097
  16    3.25321E+00    0.0841510734609617
  17    2.97441E+00    0.0769393773149969
  18    2.73219E+00    0.0706738863795510
  19    2.50345E+00    0.0647569510599884
  20    2.34800E+00    0.0607360211334015
  21    2.20802E+00    0.0571150234904479
  22    2.09354E+00    0.0541538315804159
  23    1.92561E+00    0.0498099687862981
  24    1.81582E+00    0.0469701755867614
  25    1.66890E+00    0.0431695733658497
  26    1.62676E+00    0.0420796486423958
  27    1.48090E+00    0.0383065858502019
  28    1.47920E+00    0.0382627748458443
  29    1.31697E+00    0.0340662679395854
  30    1.34974E+00    0.0349138223383198
  31    1.18805E+00    0.0307314434908346
  32    1.23126E+00    0.0318491867429259
  33    1.07731E+00    0.0278669958923626
  34    1.13176E+00    0.0292752901126628
  35    9.64014E-01    0.0249362822959025
  36    1.05871E+00    0.0273858563609150
  37    8.69116E-01    0.0224815341995436
  38    9.98160E-01    0.0258195409772817
  39    7.78667E-01    0.0201418709718159
  40    9.90602E-01    0.0256240415808790
  41    7.37313E-01    0.0190721755574586
  42    9.24904E-01    0.0239245999596737
  43    6.25616E-01    0.0161828945716331
  44    1.04249E+00    0.0269661761999486
  45    4.60035E-01    0.0118997839061731
  46    1.39110E+00    0.0359838284785029
