  # July 4, 2014 12:22:22
 # jmin,jmax    0   50
 # Eau     0.00200000
 # r0,ra,rb,rdel,tol,Bau,mu   3.5000  25.0000  25.0000   4.0000  1.0000E-03  3.0130E-07  6.8548E+03
 # parity bigJ  0  0        1  0        1  1        2  0        2  1        2  2        3  0        3  1        3  2        3  3
 # jmin,jmax,maxlamb are            0          50         100
 # j and jp are          27          40
 # lam  B-lambda(j,jp)  angle
#   13     51.8734      6.1848
#   14      2.8884     11.0063
#   15     21.9669     14.5029
#   16      1.6445     17.4907
#   17     13.9209     20.1991
#   18      1.0661     22.7305
#   19      9.6184     25.1404
#   20      0.7391     27.4632
#   21      6.3863     29.7213
#   22      0.5775     31.9305
#   23      4.6092     34.1027
#   24      0.4934     36.2466
#   25      3.6128     38.3692
#   26      0.4123     40.4760
#   27      2.7478     42.5719
#   28      0.3112     44.6606
#   29      2.1141     46.7456
#   30      0.2167     48.8300
#   31      1.6187     50.9163
#   32      0.1514     53.0071
#   33      1.2531     55.1046
#   34      0.1059     57.2111
#   35      1.0197     59.3287
#   36      0.0703     61.4594
#   37      0.8733     63.6053
#   38      0.0465     65.7685
#   39      0.7565     67.9510
#   40      0.0319     70.1551
#   41      0.5879     72.3829
#   42      0.0215     74.6369
#   43      0.3875     76.9196
#   44      0.0142     79.2338
#   45      0.2479     81.5824
#   46      0.0093     83.9685
#   47      0.1686     86.3957
#   48      0.0058     88.8679
#   49      0.1042     91.3895
#   50      0.0034     93.9653
#   51      0.0649     96.6010
#   52      0.0019     99.3030
#   53      0.0476    102.0786
#   54      0.0008    104.9366
#   55      0.0274    107.8873
#   56      0.0002    110.9429
#   57      0.0088    114.1187
#   58      0.0000    117.4334
#   59      0.0013    120.9109
#   60      0.0000    124.5823
#   61      0.0001    128.4896
#   62      0.0000    132.6917
#   63      0.0001    137.2762
#   64      0.0000    142.3832
#   65      0.0001    148.2646
#   66      0.0000    155.4721
#   67      0.0002    165.9139
   0    7.14754E+01    1.0000000000000000
   1    6.17828E+01    0.8643931486668871
   2    4.83432E+01    0.6763615831217432
   3    3.68988E+01    0.5162443879613878
   4    2.89970E+01    0.4056915213021103
   5    2.34975E+01    0.3287496152352229
   6    1.93008E+01    0.2700339674974725
   7    1.60339E+01    0.2243278294144633
   8    1.36244E+01    0.1906169432772137
   9    1.19264E+01    0.1668596767453495
  10    1.06289E+01    0.1487071081731771
  11    9.48463E+00    0.1326977562399224
  12    8.50445E+00    0.1189842967092314
  13    7.77921E+00    0.1088376218325794
  14    7.27894E+00    0.1018383471133076
  15    6.89198E+00    0.0964245175379261
  16    6.52220E+00    0.0912509872229290
  17    6.13019E+00    0.0857664112839756
  18    5.74848E+00    0.0804259385298338
  19    5.41405E+00    0.0757471000947249
  20    5.10726E+00    0.0714548457371812
  21    4.80160E+00    0.0671783833368976
  22    4.52142E+00    0.0632583756337182
  23    4.29783E+00    0.0601301610312325
  24    4.12330E+00    0.0576884031330195
  25    3.97420E+00    0.0556023969956903
  26    3.84232E+00    0.0537571730695580
  27    3.72532E+00    0.0521203118800785
  28    3.61493E+00    0.0505759237340748
  29    3.50114E+00    0.0489838835292157
  30    3.38139E+00    0.0473085037615032
  31    3.26104E+00    0.0456246820173758
  32    3.14599E+00    0.0440150673853382
  33    3.04047E+00    0.0425386633830701
  34    2.94992E+00    0.0412718494444942
  35    2.85822E+00    0.0399888584950914
  36    2.79449E+00    0.0390972242576776
  37    2.69941E+00    0.0377669462846327
  38    2.66331E+00    0.0372619746904722
  39    2.56612E+00    0.0359021280802753
  40    2.55261E+00    0.0357130968944430
  41    2.46597E+00    0.0345009656843313
  42    2.47643E+00    0.0346472796158149
  43    2.37080E+00    0.0331694953795365
  44    2.41751E+00    0.0338229868221683
  45    2.23966E+00    0.0313346303304754
  46    2.28871E+00    0.0320209025410438
  47    2.03502E+00    0.0284716195116599
  48    2.15437E+00    0.0301414578489741
  49    1.72471E+00    0.0241301799668475
  50    2.12158E+00    0.0296826005239042
  51    1.39247E+00    0.0194817757689304
  52    2.12224E+00    0.0296918616266098
  53    1.13702E+00    0.0159078707554807
  54    2.50525E+00    0.0350505814293091
