  # July 4, 2014 12:22:22
 # jmin,jmax    0   50
 # Eau     0.00200000
 # r0,ra,rb,rdel,tol,Bau,mu   3.5000  25.0000  25.0000   4.0000  1.0000E-03  3.0130E-07  6.8548E+03
 # parity bigJ  0  0        1  0        1  1        2  0        2  1        2  2        3  0        3  1        3  2        3  3
 # jmin,jmax,maxlamb are            0          50         100
 # j and jp are          32          41
 # lam  B-lambda(j,jp)  angle
#    9     95.9461      4.6782
#   10      7.0184      8.4076
#   11     40.4034     11.1585
#   12      3.9535     13.5424
#   13     25.2812     15.7286
#   14      2.7539     17.7916
#   15     16.3064     19.7712
#   16      2.0819     21.6918
#   17     11.3364     23.5690
#   18      1.6649     25.4139
#   19      8.2691     27.2345
#   20      1.3961     29.0366
#   21      5.8700     30.8250
#   22      1.1056     32.6032
#   23      4.2392     34.3744
#   24      0.7731     36.1410
#   25      3.1856     37.9051
#   26      0.5173     39.6687
#   27      2.6288     41.4333
#   28      0.3743     43.2005
#   29      2.1324     44.9716
#   30      0.2749     46.7479
#   31      1.5775     48.5305
#   32      0.1918     50.3206
#   33      1.2252     52.1193
#   34      0.1343     53.9277
#   35      1.0197     55.7468
#   36      0.0959     57.5778
#   37      0.8568     59.4216
#   38      0.0658     61.2795
#   39      0.7132     63.1526
#   40      0.0424     65.0421
#   41      0.5252     66.9491
#   42      0.0271     68.8751
#   43      0.3362     70.8213
#   44      0.0178     72.7893
#   45      0.2235     74.7806
#   46      0.0114     76.7969
#   47      0.1475     78.8400
#   48      0.0069     80.9118
#   49      0.0856     83.0145
#   50      0.0041     85.1505
#   51      0.0573     87.3222
#   52      0.0021     89.5326
#   53      0.0398     91.7848
#   54      0.0008     94.0824
#   55      0.0178     96.4293
#   56      0.0002     98.8301
#   57      0.0040    101.2900
#   58      0.0000    103.8149
#   59      0.0004    106.4117
#   60      0.0000    109.0887
#   61      0.0001    111.8555
#   62      0.0000    114.7238
#   63      0.0000    117.7079
#   64      0.0000    120.8254
#   65      0.0001    124.0991
#   66      0.0000    127.5584
#   67      0.0000    131.2431
#   68      0.0000    135.2090
#   69      0.0000    139.5392
#   70      0.0000    144.3664
#   71      0.0000    149.9296
#   72      0.0000    156.7518
#   73      0.0000    166.6402
   0    9.19982E+01    1.0000000000000000
   1    8.30498E+01    0.9027321243786212
   2    6.93774E+01    0.7541171223657122
   3    5.59562E+01    0.6082313607309831
   4    4.53388E+01    0.4928223450127227
   5    3.74655E+01    0.4072415630310631
   6    3.13826E+01    0.3411213651530939
   7    2.64839E+01    0.2878744464819940
   8    2.25837E+01    0.2454794366647626
   9    1.95858E+01    0.2128937121934032
  10    1.73186E+01    0.1882488719807669
  11    1.55392E+01    0.1689071131790361
  12    1.40377E+01    0.1525870975968578
  13    1.27412E+01    0.1384936261264473
  14    1.16736E+01    0.1268893366889978
  15    1.08223E+01    0.1176355981555691
  16    1.01024E+01    0.1098109770286815
  17    9.43778E+00    0.1025865674356948
  18    8.81187E+00    0.0957830176574803
  19    8.24798E+00    0.0896537021677529
  20    7.78017E+00    0.0845687399510525
  21    7.42557E+00    0.0807143032072886
  22    7.15545E+00    0.0777781615541684
  23    6.91015E+00    0.0751117271432314
  24    6.65370E+00    0.0723241795972509
  25    6.39063E+00    0.0694646558090170
  26    6.13142E+00    0.0666471760824549
  27    5.87440E+00    0.0638534175787445
  28    5.62513E+00    0.0611438705849010
  29    5.40210E+00    0.0587196445717708
  30    5.21423E+00    0.0566774914360427
  31    5.04775E+00    0.0548679499166061
  32    4.88439E+00    0.0530922319258905
  33    4.72025E+00    0.0513081037628775
  34    4.56595E+00    0.0496308104360283
  35    4.43179E+00    0.0481725359789004
  36    4.32024E+00    0.0469599887957458
  37    4.22627E+00    0.0459385807091528
  38    4.14276E+00    0.0450308307000851
  39    4.06375E+00    0.0441720779730611
  40    3.98718E+00    0.0433397185210085
  41    3.91218E+00    0.0425244952336768
  42    3.84088E+00    0.0417495145577643
  43    3.77575E+00    0.0410415630937363
  44    3.71292E+00    0.0403586123855631
  45    3.65881E+00    0.0397704205554723
  46    3.60928E+00    0.0392320544157140
  47    3.54676E+00    0.0385524872582423
  48    3.51926E+00    0.0382535277399365
  49    3.43417E+00    0.0373286061801490
  50    3.40293E+00    0.0369890442262415
  51    3.30067E+00    0.0358775578584481
  52    3.26259E+00    0.0354636591026663
  53    3.09770E+00    0.0336712501070344
  54    3.10502E+00    0.0337508131838039
  55    2.92543E+00    0.0317988138686649
  56    2.98066E+00    0.0323991397328185
  57    2.69160E+00    0.0292570836692255
  58    2.90140E+00    0.0315375485184652
  59    2.40593E+00    0.0261519026849503
  60    2.95873E+00    0.0321607547012801
  61    2.15693E+00    0.0234453299479124
  62    2.82272E+00    0.0306823387345035
  63    1.53468E+00    0.0166816362929656
  64    3.24668E+00    0.0352906426182327
