  # July 4, 2014 12:22:22
 # jmin,jmax    0   50
 # Eau     0.00200000
 # r0,ra,rb,rdel,tol,Bau,mu   3.5000  25.0000  25.0000   4.0000  1.0000E-03  3.0130E-07  6.8548E+03
 # parity bigJ  0  0        1  0        1  1        2  0        2  1        2  2        3  0        3  1        3  2        3  3
 # jmin,jmax,maxlamb are            0          50         100
 # j and jp are          30          48
 # lam  B-lambda(j,jp)  angle
#   18     17.6369      6.3145
#   19      1.0137     11.1612
#   20      7.0810     14.6331
#   21      0.6168     17.5670
#   22      4.2451     20.2006
#   23      0.4291     22.6406
#   24      2.8685     24.9453
#   25      0.3261     27.1510
#   26      2.0581     29.2815
#   27      0.2769     31.3537
#   28      1.5073     33.3801
#   29      0.2291     35.3700
#   30      1.1684     37.3309
#   31      0.1878     39.2687
#   32      0.9691     41.1883
#   33      0.1532     43.0938
#   34      0.7522     44.9886
#   35      0.1212     46.8758
#   36      0.5580     48.7580
#   37      0.0908     50.6375
#   38      0.4399     52.5167
#   39      0.0624     54.3973
#   40      0.3594     56.2814
#   41      0.0371     58.1705
#   42      0.2806     60.0665
#   43      0.0185     61.9708
#   44      0.2308     63.8852
#   45      0.0093     65.8113
#   46      0.2187     67.7505
#   47      0.0056     69.7045
#   48      0.1752     71.6750
#   49      0.0031     73.6636
#   50      0.0910     75.6722
#   51      0.0013     77.7026
#   52      0.0300     79.7568
#   53      0.0005     81.8370
#   54      0.0087     83.9453
#   55      0.0002     86.0842
#   56      0.0030     88.2564
#   57      0.0000     90.4649
#   58      0.0008     92.7128
#   59      0.0000     95.0039
#   60      0.0002     97.3420
#   61      0.0000     99.7318
#   62      0.0001    102.1785
#   63      0.0000    104.6879
#   64      0.0000    107.2672
#   65      0.0000    109.9242
#   66      0.0000    112.6687
#   67      0.0000    115.5123
#   68      0.0000    118.4689
#   69      0.0000    121.5563
#   70      0.0000    124.7967
#   71      0.0000    128.2193
#   72      0.0000    131.8633
#   73      0.0000    135.7838
#   74      0.0000    140.0628
#   75      0.0000    144.8313
#   76      0.0000    150.3249
#   77      0.0000    157.0594
#   78      0.0000    166.8176
   0    2.64616E+01    1.0000000000000000
   1    2.33836E+01    0.8836816852589446
   2    1.87349E+01    0.7080027331193137
   3    1.43552E+01    0.5424913518178328
   4    1.12137E+01    0.4237713274438406
   5    9.19310E+00    0.3474131207187999
   6    7.74977E+00    0.2928687450537231
   7    6.56692E+00    0.2481683249482432
   8    5.63362E+00    0.2128983314167724
   9    4.96279E+00    0.1875472632705239
  10    4.44336E+00    0.1679173363879188
  11    3.95621E+00    0.1495075972530979
  12    3.50306E+00    0.1323827482892181
  13    3.15675E+00    0.1192956573540017
  14    2.93133E+00    0.1107770340142230
  15    2.75715E+00    0.1041943694613165
  16    2.57054E+00    0.0971425375261211
  17    2.37822E+00    0.0898744498261690
  18    2.21967E+00    0.0838829011273091
  19    2.09994E+00    0.0793579286340768
  20    1.98746E+00    0.0751072583151141
  21    1.86505E+00    0.0704812726325290
  22    1.75233E+00    0.0662216493336217
  23    1.67252E+00    0.0632054860155555
  24    1.61788E+00    0.0611406594960622
  25    1.56087E+00    0.0589861185528325
  26    1.48824E+00    0.0562414327764940
  27    1.41063E+00    0.0533085157115532
  28    1.34291E+00    0.0507494057199854
  29    1.28756E+00    0.0486576875846734
  30    1.23841E+00    0.0468004824669919
  31    1.19154E+00    0.0450289620533998
  32    1.14750E+00    0.0433647762774008
  33    1.10685E+00    0.0418286812453225
  34    1.06795E+00    0.0403585749614792
  35    1.02901E+00    0.0388870715308809
  36    9.90118E-01    0.0374172215347958
  37    9.52564E-01    0.0359980017402062
  38    9.17370E-01    0.0346680050620041
  39    8.84484E-01    0.0334252183754612
  40    8.53424E-01    0.0322514415480944
  41    8.23596E-01    0.0311242490668501
  42    7.94753E-01    0.0300342256804818
  43    7.66696E-01    0.0289739528368236
  44    7.39508E-01    0.0279464982923111
  45    7.12819E-01    0.0269379040988115
  46    6.87637E-01    0.0259862474243364
  47    6.63578E-01    0.0250770552042840
  48    6.40363E-01    0.0241997449997710
  49    6.21144E-01    0.0234734466348896
  50    6.02971E-01    0.0227866697957598
  51    5.73271E-01    0.0216642981183142
  52    5.49590E-01    0.0207693710060299
  53    5.31996E-01    0.0201044886071083
  54    4.86732E-01    0.0183939176328478
  55    4.32107E-01    0.0163295962251101
  56    5.11681E-01    0.0193367622377024
  57    3.53617E-01    0.0133634044051944
  58    5.54480E-01    0.0209541425931665
  59    2.82940E-01    0.0106924685699273
  60    6.33917E-01    0.0239561398300690
