  # July 4, 2014 12:22:22
 # jmin,jmax    0   50
 # Eau     0.00200000
 # r0,ra,rb,rdel,tol,Bau,mu   3.5000  25.0000  25.0000   4.0000  1.0000E-03  3.0130E-07  6.8548E+03
 # parity bigJ  0  0        1  0        1  1        2  0        2  1        2  2        3  0        3  1        3  2        3  3
 # jmin,jmax,maxlamb are            0          50         100
 # j and jp are          21          49
 # lam  B-lambda(j,jp)  angle
#   28      5.7147      9.2745
#   29      0.1562     16.3277
#   30      2.5213     21.3346
#   31      0.0812     25.5335
#   32      1.6113     29.2781
#   33      0.0439     32.7289
#   34      1.0739     35.9743
#   35      0.0319     39.0694
#   36      0.7949     42.0513
#   37      0.0259     44.9464
#   38      0.6554     47.7745
#   39      0.0205     50.5508
#   40      0.5187     53.2878
#   41      0.0153     55.9954
#   42      0.3648     58.6824
#   43      0.0108     61.3561
#   44      0.2400     64.0232
#   45      0.0074     66.6897
#   46      0.1681     69.3613
#   47      0.0046     72.0433
#   48      0.1184     74.7411
#   49      0.0024     77.4598
#   50      0.0642     80.2048
#   51      0.0009     82.9814
#   52      0.0226     85.7956
#   53      0.0003     88.6535
#   54      0.0063     91.5620
#   55      0.0001     94.5285
#   56      0.0028     97.5615
#   57      0.0000    100.6708
#   58      0.0012    103.8678
#   59      0.0000    107.1658
#   60      0.0003    110.5812
#   61      0.0000    114.1339
#   62      0.0001    117.8492
#   63      0.0000    121.7599
#   64      0.0000    125.9102
#   65      0.0000    130.3618
#   66      0.0000    135.2063
#   67      0.0000    140.5900
#   68      0.0000    146.7764
#   69      0.0000    154.3419
#   70      0.0000    165.2822
   0    1.41806E+01    1.0000000000000000
   1    1.18791E+01    0.8376970341878207
   2    8.60412E+00    0.6067530270969435
   3    5.84619E+00    0.4122663254151930
   4    4.20614E+00    0.2966122319007854
   5    3.38747E+00    0.2388804410188914
   6    2.87866E+00    0.2029996603513582
   7    2.43847E+00    0.1719584191676686
   8    2.06711E+00    0.1457699576743192
   9    1.78935E+00    0.1261830626870075
  10    1.58174E+00    0.1115422711609475
  11    1.42611E+00    0.1005678914993210
  12    1.32715E+00    0.0935892301987629
  13    1.26917E+00    0.0895002029023754
  14    1.20822E+00    0.0852026202339633
  15    1.11995E+00    0.0789776293675478
  16    1.02370E+00    0.0721900568976056
  17    9.47694E-01    0.0668302985733810
  18    8.94648E-01    0.0630895526102052
  19    8.50387E-01    0.0599683237685663
  20    8.07476E-01    0.0569422610845869
  21    7.67954E-01    0.0541552174992030
  22    7.33673E-01    0.0517378060706881
  23    7.02781E-01    0.0495593225111714
  24    6.73506E-01    0.0474948653358418
  25    6.45669E-01    0.0455318524286766
  26    6.19703E-01    0.0437007728989699
  27    5.95173E-01    0.0419709237209843
  28    5.71470E-01    0.0402994451723235
  29    5.47790E-01    0.0386294885763014
  30    5.23789E-01    0.0369369902966611
  31    4.99155E-01    0.0351998696917996
  32    4.73772E-01    0.0334098300265127
  33    4.47786E-01    0.0315773665804744
  34    4.23098E-01    0.0298363846951809
  35    3.97433E-01    0.0280265492054816
  36    3.80801E-01    0.0268536509004685
  37    3.63387E-01    0.0256256404775291
  38    3.52848E-01    0.0248824417029173
  39    3.57212E-01    0.0251901541729002
  40    3.87177E-01    0.0273032791713674
  41    3.09091E-01    0.0217967110186767
  42    4.42509E-01    0.0312052337180822
