  # July 4, 2014 12:22:22
 # jmin,jmax    0   50
 # Eau     0.00200000
 # r0,ra,rb,rdel,tol,Bau,mu   3.5000  25.0000  25.0000   4.0000  1.0000E-03  3.0130E-07  6.8548E+03
 # parity bigJ  0  0        1  0        1  1        2  0        2  1        2  2        3  0        3  1        3  2        3  3
 # jmin,jmax,maxlamb are            0          50         100
 # j and jp are           9          48
 # lam  B-lambda(j,jp)  angle
#   39      3.2928     16.5615
#   40      0.0026     29.3579
#   41      1.3330     38.5136
#   42      0.0025     46.2769
#   43      0.7702     53.2937
#   44      0.0020     59.8624
#   45      0.4669     66.1545
#   46      0.0014     72.2845
#   47      0.2615     78.3381
#   48      0.0008     84.3871
#   49      0.1361     90.4981
#   50      0.0005     96.7403
#   51      0.0820    103.1922
#   52      0.0002    109.9524
#   53      0.0556    117.1573
#   54      0.0001    125.0160
#   55      0.0313    133.8957
#   56      0.0000    144.5936
#   57      0.0158    159.8765
   0    1.25590E+01    1.0000000000000000
   1    9.07840E+00    0.7228604865345107
   2    5.74705E+00    0.4576045454867725
   3    3.69592E+00    0.2942845960940644
   4    2.69902E+00    0.2149076672206492
   5    2.19629E+00    0.1748782745495275
   6    1.89424E+00    0.1508272163457731
   7    1.58306E+00    0.1260496102987392
   8    1.39566E+00    0.1111282494395954
   9    1.21722E+00    0.0969203850883448
  10    1.12430E+00    0.0895217491408396
  11    9.74433E-01    0.0775885009580460
  12    9.25013E-01    0.0736534576362028
  13    7.84913E-01    0.0624981229111740
  14    7.80548E-01    0.0621505202175632
  15    6.29229E-01    0.0501018859732584
  16    6.73963E-01    0.0536637797211321
  17    4.98385E-01    0.0396835635455871
  18    6.38498E-01    0.0508399671964236
