  # July 4, 2014 12:22:22
 # jmin,jmax    0   50
 # Eau     0.00200000
 # r0,ra,rb,rdel,tol,Bau,mu   3.5000  25.0000  25.0000   4.0000  1.0000E-03  3.0130E-07  6.8548E+03
 # parity bigJ  0  0        1  0        1  1        2  0        2  1        2  2        3  0        3  1        3  2        3  3
 # jmin,jmax,maxlamb are            0          50         100
 # j and jp are          29          40
 # lam  B-lambda(j,jp)  angle
#   11     67.7848      5.4941
#   12      3.9253      9.8161
#   13     29.4693     12.9728
#   14      2.2003     15.6864
#   15     18.2506     18.1584
#   16      1.4581     20.4785
#   17     12.1089     22.6950
#   18      1.0456     24.8376
#   19      8.5798     26.9255
#   20      0.7752     28.9725
#   21      5.8544     30.9884
#   22      0.6197     32.9807
#   23      4.3858     34.9554
#   24      0.5354     36.9170
#   25      3.4560     38.8696
#   26      0.4471     40.8162
#   27      2.6517     42.7598
#   28      0.3336     44.7028
#   29      2.0751     46.6473
#   30      0.2315     48.5954
#   31      1.5848     50.5489
#   32      0.1643     52.5095
#   33      1.2236     54.4789
#   34      0.1177     56.4587
#   35      0.9992     58.4504
#   36      0.0793     60.4556
#   37      0.8597     62.4758
#   38      0.0522     64.5128
#   39      0.7458     66.5680
#   40      0.0352     68.6433
#   41      0.5719     70.7404
#   42      0.0234     72.8612
#   43      0.3715     75.0078
#   44      0.0155     77.1821
#   45      0.2400     79.3867
#   46      0.0101     81.6240
#   47      0.1626     83.8967
#   48      0.0063     86.2079
#   49      0.0982     88.5608
#   50      0.0037     90.9594
#   51      0.0622     93.4077
#   52      0.0020     95.9104
#   53      0.0453     98.4730
#   54      0.0008    101.1017
#   55      0.0243    103.8037
#   56      0.0002    106.5874
#   57      0.0070    109.4630
#   58      0.0000    112.4424
#   59      0.0010    115.5404
#   60      0.0000    118.7754
#   61      0.0001    122.1709
#   62      0.0000    125.7572
#   63      0.0001    129.5754
#   64      0.0000    133.6834
#   65      0.0001    138.1668
#   66      0.0000    143.1629
#   67      0.0001    148.9186
#   68      0.0000    155.9742
#   69      0.0001    166.1985
   0    7.99615E+01    1.0000000000000000
   1    7.03808E+01    0.8801837117386881
   2    5.66018E+01    0.7078623681447441
   3    4.42286E+01    0.5531236947737215
   4    3.52506E+01    0.4408451082942997
   5    2.88531E+01    0.3608376920522517
   6    2.39177E+01    0.2991149809817871
   7    1.99938E+01    0.2500429273007072
   8    1.69808E+01    0.2123620276950316
   9    1.47544E+01    0.1845182771504249
  10    1.30559E+01    0.1632771063810634
  11    1.16180E+01    0.1452946728721717
  12    1.03707E+01    0.1296959453346768
  13    9.39696E+00    0.1175185320370868
  14    8.70953E+00    0.1089214985929352
  15    8.19712E+00    0.1025133385059512
  16    7.74169E+00    0.0968176971388893
  17    7.28557E+00    0.0911134943907222
  18    6.83580E+00    0.0854886228890687
  19    6.43670E+00    0.0804974930438468
  20    6.10580E+00    0.0763592651941799
  21    5.80942E+00    0.0726527157189744
  22    5.52740E+00    0.0691257575964464
  23    5.28323E+00    0.0660721447021136
  24    5.09358E+00    0.0637003538807688
  25    4.93532E+00    0.0617212028887025
  26    4.78176E+00    0.0598007194078971
  27    4.62880E+00    0.0578878854405162
  28    4.48068E+00    0.0560353892321315
  29    4.33310E+00    0.0541897880300002
  30    4.18171E+00    0.0522965763213247
  31    4.03105E+00    0.0504124234684425
  32    3.89284E+00    0.0486838622270727
  33    3.77546E+00    0.0472159927204696
  34    3.68046E+00    0.0460278751330147
  35    3.60344E+00    0.0450647306446141
  36    3.53462E+00    0.0442039810995701
  37    3.46935E+00    0.0433877926504747
  38    3.40409E+00    0.0425715443769463
  39    3.32879E+00    0.0416298749268104
  40    3.27081E+00    0.0409048236067242
  41    3.17332E+00    0.0396855599739213
  42    3.12690E+00    0.0391050025913592
  43    3.00991E+00    0.0376420191595663
  44    2.96196E+00    0.0370422864503146
  45    2.83604E+00    0.0354675053226746
  46    2.80983E+00    0.0351397262584816
  47    2.66203E+00    0.0332913658782433
  48    2.71385E+00    0.0339394894248082
  49    2.55271E+00    0.0319241773975039
  50    2.64286E+00    0.0330515900128158
  51    2.38976E+00    0.0298863315276297
  52    2.58996E+00    0.0323900777547541
  53    2.06672E+00    0.0258463850256097
  54    2.54619E+00    0.0318426701737920
  55    1.72998E+00    0.0216351639765582
  56    2.45247E+00    0.0306706765342794
  57    1.37890E+00    0.0172445024085822
  58    2.91395E+00    0.0364418756240292
