  # July 4, 2014 12:22:22
 # jmin,jmax    0   50
 # Eau     0.00200000
 # r0,ra,rb,rdel,tol,Bau,mu   3.5000  25.0000  25.0000   4.0000  1.0000E-03  3.0130E-07  6.8548E+03
 # parity bigJ  0  0        1  0        1  1        2  0        2  1        2  2        3  0        3  1        3  2        3  3
 # jmin,jmax,maxlamb are            0          50         100
 # j and jp are          30          36
 # lam  B-lambda(j,jp)  angle
#    6    275.5752      4.2049
#    7     14.8064      7.6847
#    8     73.2004     10.3173
#    9      7.9576     12.6451
#   10     30.2424     14.8142
#   11      4.0046     16.8875
#   12     15.3878     18.8983
#   13      2.3462     20.8662
#   14      9.0139     22.8040
#   15      1.5490     24.7204
#   16      5.6705     26.6218
#   17      1.1636     28.5129
#   18      3.8619     30.3974
#   19      0.8614     32.2781
#   20      2.8391     34.1576
#   21      0.6301     36.0379
#   22      2.1158     37.9207
#   23      0.4635     39.8078
#   24      1.6566     41.7004
#   25      0.3136     43.6000
#   26      1.3952     45.5079
#   27      0.1832     47.4252
#   28      1.1496     49.3531
#   29      0.1067     51.2929
#   30      0.9058     53.2457
#   31      0.0786     55.2127
#   32      0.7801     57.1950
#   33      0.0640     59.1941
#   34      0.6598     61.2112
#   35      0.0507     63.2476
#   36      0.4573     65.3048
#   37      0.0407     67.3843
#   38      0.3248     69.4879
#   39      0.0325     71.6171
#   40      0.2690     73.7741
#   41      0.0250     75.9606
#   42      0.2263     78.1791
#   43      0.0183     80.4320
#   44      0.1926     82.7219
#   45      0.0127     85.0519
#   46      0.1430     87.4252
#   47      0.0085     89.8456
#   48      0.1081     92.3172
#   49      0.0053     94.8448
#   50      0.1005     97.4338
#   51      0.0026    100.0905
#   52      0.0717    102.8220
#   53      0.0010    105.6371
#   54      0.0308    108.5457
#   55      0.0004    111.5601
#   56      0.0102    114.6952
#   57      0.0001    117.9697
#   58      0.0041    121.4071
#   59      0.0000    125.0385
#   60      0.0012    128.9053
#   61      0.0000    133.0661
#   62      0.0002    137.6078
#   63      0.0000    142.6695
#   64      0.0002    148.5015
#   65      0.0000    155.6515
#   66      0.0002    166.0138
   0    1.19022E+02    1.0000000000000000
   1    1.11475E+02    0.9365889323755309
   2    1.00921E+02    0.8479151835551906
   3    9.11666E+01    0.7659634198621296
   4    8.28337E+01    0.6959521155293313
   5    7.53991E+01    0.6334879136507789
   6    6.87475E+01    0.5776022446106583
   7    6.27637E+01    0.5273278720056381
   8    5.72301E+01    0.4808353754712691
   9    5.21650E+01    0.4382800461551303
  10    4.76606E+01    0.4004347856764013
  11    4.36409E+01    0.3666621132840686
  12    4.00131E+01    0.3361819239090081
  13    3.67514E+01    0.3087780954457517
  14    3.38103E+01    0.2840670172600279
  15    3.11640E+01    0.2618340422464021
  16    2.88468E+01    0.2423650833539306
  17    2.68179E+01    0.2253185643887177
  18    2.49676E+01    0.2097725336448161
  19    2.32676E+01    0.1954892690318701
  20    2.17595E+01    0.1828189138684130
  21    2.04365E+01    0.1717035991248301
  22    1.92540E+01    0.1617685175564614
  23    1.81797E+01    0.1527419474631934
  24    1.71877E+01    0.1444079948130377
  25    1.62638E+01    0.1366450769272865
  26    1.54222E+01    0.1295743741135389
  27    1.46749E+01    0.1232957041957347
  28    1.40023E+01    0.1176447867185152
  29    1.33662E+01    0.1123002967860220
  30    1.27602E+01    0.1072085276416033
  31    1.21821E+01    0.1023513310903458
  32    1.16470E+01    0.0978557263097970
  33    1.11340E+01    0.0935458481308509
  34    1.06503E+01    0.0894816248121082
  35    1.01770E+01    0.0855052953762218
  36    9.73326E+00    0.0817768853149133
  37    9.28888E+00    0.0780433303705531
  38    8.89732E+00    0.0747534771288106
  39    8.45388E+00    0.0710277997581358
  40    8.12427E+00    0.0682584881504800
  41    7.67123E+00    0.0644520978031231
  42    7.38470E+00    0.0620447333412644
  43    6.94813E+00    0.0583767836888228
  44    6.68418E+00    0.0561591183501819
  45    6.24901E+00    0.0525029627355260
  46    6.03202E+00    0.0506798483162038
  47    5.58624E+00    0.0469345025052510
  48    5.40248E+00    0.0453905347942478
  49    4.91470E+00    0.0412923250418714
  50    4.80793E+00    0.0403952266817349
  51    4.30011E+00    0.0361286858897264
  52    4.18261E+00    0.0351414520864413
  53    3.67527E+00    0.0308788498674360
  54    3.74137E+00    0.0314342055411261
  55    3.05601E+00    0.0256759923788143
  56    3.30702E+00    0.0277849561634397
  57    2.35517E+00    0.0197876813868672
  58    2.94349E+00    0.0247305803021835
  59    1.62644E+00    0.0136650347595569
  60    2.76253E+00    0.0232102220646545
