  # July 4, 2014 12:22:22
 # jmin,jmax    0   50
 # Eau     0.00200000
 # r0,ra,rb,rdel,tol,Bau,mu   3.5000  25.0000  25.0000   4.0000  1.0000E-03  3.0130E-07  6.8548E+03
 # parity bigJ  0  0        1  0        1  1        2  0        2  1        2  2        3  0        3  1        3  2        3  3
 # jmin,jmax,maxlamb are            0          50         100
 # j and jp are          31          42
 # lam  B-lambda(j,jp)  angle
#   11     70.3790      5.1906
#   12      5.3301      9.2722
#   13     29.2836     12.2526
#   14      2.9152     14.8138
#   15     17.4370     17.1463
#   16      2.0802     19.3345
#   17     11.8250     21.4244
#   18      1.5830     23.4435
#   19      8.5124     25.4104
#   20      1.2195     27.3377
#   21      6.2009     29.2348
#   22      0.8978     31.1086
#   23      4.7063     32.9647
#   24      0.6686     34.8074
#   25      3.5071     36.6403
#   26      0.5480     38.4664
#   27      2.8088     40.2883
#   28      0.4516     42.1081
#   29      2.3342     43.9277
#   30      0.3312     45.7491
#   31      1.8098     47.5737
#   32      0.2205     49.4030
#   33      1.4098     51.2386
#   34      0.1500     53.0816
#   35      1.1363     54.9334
#   36      0.1105     56.7953
#   37      0.9125     58.6685
#   38      0.0799     60.5543
#   39      0.7136     62.4539
#   40      0.0505     64.3688
#   41      0.5062     66.3001
#   42      0.0291     68.2494
#   43      0.3274     70.2181
#   44      0.0177     72.2076
#   45      0.2222     74.2198
#   46      0.0113     76.2562
#   47      0.1466     78.3187
#   48      0.0070     80.4095
#   49      0.0846     82.5306
#   50      0.0042     84.6844
#   51      0.0563     86.8736
#   52      0.0021     89.1010
#   53      0.0389     91.3699
#   54      0.0007     93.6839
#   55      0.0173     96.0469
#   56      0.0002     98.4636
#   57      0.0039    100.9391
#   58      0.0000    103.4796
#   59      0.0004    106.0919
#   60      0.0000    108.7842
#   61      0.0001    111.5664
#   62      0.0000    114.4500
#   63      0.0001    117.4496
#   64      0.0000    120.5828
#   65      0.0001    123.8724
#   66      0.0000    127.3480
#   67      0.0000    131.0495
#   68      0.0000    135.0330
#   69      0.0000    139.3818
#   70      0.0000    144.2293
#   71      0.0000    149.8151
#   72      0.0000    156.6643
#   73      0.0000    166.5909
   0    7.90778E+01    1.0000000000000000
   1    7.05847E+01    0.8925991861376564
   2    5.77082E+01    0.7297650995082141
   3    4.53203E+01    0.5731105884490688
   4    3.59444E+01    0.4545455071475196
   5    2.94793E+01    0.3727883033429386
   6    2.48278E+01    0.3139671633706301
   7    2.11817E+01    0.2678591247731595
   8    1.82171E+01    0.2303689743257153
   9    1.58383E+01    0.2002881125030170
  10    1.39823E+01    0.1768165599609982
  11    1.25304E+01    0.1584570297670146
  12    1.13337E+01    0.1433232539513862
  13    1.03078E+01    0.1303506562626292
  14    9.44868E+00    0.1194858744030664
  15    8.74663E+00    0.1106079130930113
  16    8.14747E+00    0.1030311297024828
  17    7.59797E+00    0.0960822386232391
  18    7.07846E+00    0.0895125884609617
  19    6.59412E+00    0.0833877754575815
  20    6.16929E+00    0.0780154402404813
  21    5.83268E+00    0.0737587241720973
  22    5.57898E+00    0.0705505794876580
  23    5.36287E+00    0.0678176252361322
  24    5.14705E+00    0.0650884098873424
  25    4.93238E+00    0.0623737629548007
  26    4.73294E+00    0.0598517393048817
  27    4.54982E+00    0.0575359587269839
  28    4.38119E+00    0.0554035972396700
  29    4.23386E+00    0.0535404022600528
  30    4.11203E+00    0.0519998453551872
  31    4.00499E+00    0.0506461765583583
  32    3.89651E+00    0.0492744042497035
  33    3.77898E+00    0.0477881174756427
  34    3.65719E+00    0.0462480136899929
  35    3.53967E+00    0.0447619249954931
  36    3.43273E+00    0.0434095924839581
  37    3.33784E+00    0.0422096062014867
  38    3.25299E+00    0.0411366124926438
  39    3.17392E+00    0.0401367518222881
  40    3.09735E+00    0.0391684106937258
  41    3.01966E+00    0.0381859397424183
  42    2.94036E+00    0.0371830823518571
  43    2.86120E+00    0.0361821402652862
  44    2.77756E+00    0.0351244203072346
  45    2.69767E+00    0.0341141168916249
  46    2.62315E+00    0.0331718276054375
  47    2.53177E+00    0.0320161983173514
  48    2.48824E+00    0.0314657950768395
  49    2.39620E+00    0.0303017671292321
  50    2.37254E+00    0.0300026485179526
  51    2.29033E+00    0.0289630170094019
  52    2.29473E+00    0.0290186670989269
  53    2.14888E+00    0.0271742877698845
  54    2.17304E+00    0.0274797421919231
  55    1.97506E+00    0.0249761710694459
  56    2.09254E+00    0.0264617498103927
  57    1.80778E+00    0.0228607856355064
  58    2.14688E+00    0.0271490278005697
  59    1.54915E+00    0.0195902471865767
  60    2.20146E+00    0.0278392271209537
  61    1.16710E+00    0.0147588419995316
  62    2.74341E+00    0.0346926181210605
