  # July 4, 2014 12:22:22
 # jmin,jmax    0   50
 # Eau     0.00200000
 # r0,ra,rb,rdel,tol,Bau,mu   3.5000  25.0000  25.0000   4.0000  1.0000E-03  3.0130E-07  6.8548E+03
 # parity bigJ  0  0        1  0        1  1        2  0        2  1        2  2        3  0        3  1        3  2        3  3
 # jmin,jmax,maxlamb are            0          50         100
 # j and jp are          29          35
 # lam  B-lambda(j,jp)  angle
#    6    270.4222      4.3353
#    7     15.2465      7.9235
#    8     70.9791     10.6383
#    9      7.3895     13.0392
#   10     30.0503     15.2766
#   11      3.5955     17.4156
#   12     15.6022     19.4904
#   13      2.0362     21.5214
#   14      8.7519     23.5217
#   15      1.4060     25.5004
#   16      5.5396     27.4640
#   17      0.9643     29.4175
#   18      3.7266     31.3647
#   19      0.5887     33.3086
#   20      2.6265     35.2519
#   21      0.3432     37.1967
#   22      1.9860     39.1449
#   23      0.2077     41.0981
#   24      1.5497     43.0581
#   25      0.1387     45.0261
#   26      1.3042     47.0037
#   27      0.1062     48.9921
#   28      1.1012     50.9927
#   29      0.0878     53.0067
#   30      0.8703     55.0355
#   31      0.0715     57.0805
#   32      0.7533     59.1431
#   33      0.0572     61.2246
#   34      0.6600     63.3266
#   35      0.0461     65.4508
#   36      0.4664     67.5988
#   37      0.0373     69.7723
#   38      0.3236     71.9735
#   39      0.0296     74.2043
#   40      0.2671     76.4671
#   41      0.0227     78.7644
#   42      0.2255     81.0990
#   43      0.0168     83.4737
#   44      0.1936     85.8922
#   45      0.0118     88.3581
#   46      0.1481     90.8756
#   47      0.0079     93.4497
#   48      0.1100     96.0858
#   49      0.0049     98.7903
#   50      0.1026    101.5705
#   51      0.0025    104.4352
#   52      0.0792    107.3946
#   53      0.0010    110.4611
#   54      0.0372    113.6500
#   55      0.0003    116.9800
#   56      0.0126    120.4752
#   57      0.0001    124.1670
#   58      0.0051    128.0976
#   59      0.0000    132.3266
#   60      0.0017    136.9419
#   61      0.0000    142.0851
#   62      0.0003    148.0100
#   63      0.0000    155.2733
#   64      0.0003    165.7989
   0    1.19112E+02    1.0000000000000000
   1    1.11195E+02    0.9335350789927166
   2    1.00604E+02    0.8446178245715841
   3    9.11336E+01    0.7651089963867133
   4    8.29292E+01    0.6962289885148482
   5    7.54276E+01    0.6332501777456867
   6    6.85995E+01    0.5759249154986463
   7    6.22990E+01    0.5230293656646818
   8    5.64534E+01    0.4739528761790025
   9    5.12470E+01    0.4302424057828385
  10    4.67196E+01    0.3922329592141968
  11    4.27229E+01    0.3586785936864931
  12    3.91673E+01    0.3288273602308658
  13    3.59696E+01    0.3019815943445794
  14    3.30594E+01    0.2775487769947053
  15    3.04774E+01    0.2558716162515571
  16    2.82274E+01    0.2369818696954059
  17    2.61963E+01    0.2199305202036515
  18    2.43361E+01    0.2043130942614680
  19    2.26865E+01    0.1904635783317949
  20    2.12454E+01    0.1783648136141245
  21    1.99625E+01    0.1675942178070721
  22    1.88000E+01    0.1578351473388807
  23    1.77194E+01    0.1487624297878809
  24    1.67117E+01    0.1403029079074804
  25    1.57889E+01    0.1325554908137400
  26    1.49710E+01    0.1256882803309937
  27    1.42150E+01    0.1193416889635774
  28    1.35037E+01    0.1133698398389879
  29    1.28181E+01    0.1076140863818886
  30    1.21936E+01    0.1023710685868649
  31    1.16124E+01    0.0974910957121893
  32    1.10919E+01    0.0931220443199441
  33    1.05788E+01    0.0888137800878166
  34    1.01297E+01    0.0850438060684280
  35    9.63608E+00    0.0808993731145108
  36    9.25482E+00    0.0776985082317736
  37    8.75901E+00    0.0735360030424045
  38    8.42994E+00    0.0707732674953444
  39    7.94432E+00    0.0666962322080378
  40    7.64076E+00    0.0641477116094408
  41    7.17680E+00    0.0602526112648172
  42    6.91032E+00    0.0580153929710001
  43    6.44062E+00    0.0540719734415128
  44    6.22564E+00    0.0522671851308843
  45    5.76008E+00    0.0483585433666470
  46    5.60601E+00    0.0470650536227246
  47    5.10888E+00    0.0428914210532317
  48    5.03641E+00    0.0422830167568032
  49    4.57372E+00    0.0383984874106428
  50    4.49060E+00    0.0377006945425896
  51    3.94070E+00    0.0330839851258722
  52    4.04791E+00    0.0339840503549681
  53    3.29540E+00    0.0276664328512752
  54    3.56565E+00    0.0299352916402051
  55    2.57320E+00    0.0216032392492647
  56    3.12319E+00    0.0262205971561175
  57    1.72661E+00    0.0144957000366180
  58    2.99737E+00    0.0251642881163505
