  # July 4, 2014 12:22:22
 # jmin,jmax    0   50
 # Eau     0.00200000
 # r0,ra,rb,rdel,tol,Bau,mu   3.5000  25.0000  25.0000   4.0000  1.0000E-03  3.0130E-07  6.8548E+03
 # parity bigJ  0  0        1  0        1  1        2  0        2  1        2  2        3  0        3  1        3  2        3  3
 # jmin,jmax,maxlamb are            0          50         100
 # j and jp are          16          47
 # lam  B-lambda(j,jp)  angle
#   31      7.5498     11.3600
#   32      0.0519     20.0225
#   33      3.3839     26.1775
#   34      0.0336     31.3475
#   35      2.2716     35.9677
#   36      0.0248     40.2359
#   37      1.5868     44.2618
#   38      0.0172     48.1142
#   39      1.0982     51.8398
#   40      0.0111     55.4727
#   41      0.7438     59.0387
#   42      0.0068     62.5585
#   43      0.5002     66.0493
#   44      0.0044     69.5261
#   45      0.3341     73.0022
#   46      0.0031     76.4901
#   47      0.2019     80.0020
#   48      0.0020     83.5499
#   49      0.1107     87.1463
#   50      0.0012     90.8046
#   51      0.0692     94.5396
#   52      0.0006     98.3679
#   53      0.0455    102.3092
#   54      0.0003    106.3869
#   55      0.0216    110.6302
#   56      0.0001    115.0762
#   57      0.0061    119.7745
#   58      0.0000    124.7941
#   59      0.0010    130.2367
#   60      0.0000    136.2647
#   61      0.0002    143.1695
#   62      0.0000    151.5893
#   63      0.0002    163.7365
   0    2.25368E+01    1.0000000000000000
   1    1.79817E+01    0.7978823378966367
   2    1.21455E+01    0.5389203749975467
   3    7.84209E+00    0.3479679804721957
   4    5.49027E+00    0.2436132144406326
   5    4.32078E+00    0.1917208464526911
   6    3.68574E+00    0.1635432787682902
   7    3.23914E+00    0.1437265857304555
   8    2.87132E+00    0.1274059626686057
   9    2.58753E+00    0.1148133010810887
  10    2.35280E+00    0.1043980652402321
  11    2.12385E+00    0.0942392217243519
  12    1.92601E+00    0.0854605793573214
  13    1.78033E+00    0.0789963732828758
  14    1.66157E+00    0.0737271333433787
  15    1.54765E+00    0.0686722243572932
  16    1.44628E+00    0.0641738889216152
  17    1.36325E+00    0.0604900160423393
  18    1.29385E+00    0.0574106291570559
  19    1.23046E+00    0.0545978567288453
  20    1.17331E+00    0.0520618472607605
  21    1.11990E+00    0.0496919754307092
  22    1.07424E+00    0.0476658905001681
  23    1.02556E+00    0.0455058921143394
  24    9.90851E-01    0.0439658650346843
  25    9.34350E-01    0.0414588368732768
  26    9.17683E-01    0.0407192977796800
  27    8.36363E-01    0.0371109498627571
  28    8.48819E-01    0.0376636620521367
  29    7.40152E-01    0.0328418974060270
  30    7.65529E-01    0.0339679323276657
  31    5.88367E-01    0.0261069080951362
  32    8.09471E-01    0.0359177187326617
