  # July 4, 2014 12:22:22
 # jmin,jmax    0   50
 # Eau     0.00200000
 # r0,ra,rb,rdel,tol,Bau,mu   3.5000  25.0000  25.0000   4.0000  1.0000E-03  3.0130E-07  6.8548E+03
 # parity bigJ  0  0        1  0        1  1        2  0        2  1        2  2        3  0        3  1        3  2        3  3
 # jmin,jmax,maxlamb are            0          50         100
 # j and jp are          24          43
 # lam  B-lambda(j,jp)  angle
#   19     26.4082      7.6398
#   20      1.7776     13.5044
#   21     10.9199     17.7036
#   22      1.0437     21.2522
#   23      6.8557     24.4384
#   24      0.7662     27.3918
#   25      4.7003     30.1838
#   26      0.5328     32.8583
#   27      3.3486     35.4449
#   28      0.3469     37.9644
#   29      2.3809     40.4321
#   30      0.2267     42.8600
#   31      1.6899     45.2574
#   32      0.1534     47.6321
#   33      1.3745     49.9904
#   34      0.1039     52.3378
#   35      1.1700     54.6791
#   36      0.0693     57.0186
#   37      0.9500     59.3601
#   38      0.0456     61.7074
#   39      0.7838     64.0638
#   40      0.0295     66.4326
#   41      0.5969     68.8171
#   42      0.0193     71.2205
#   43      0.3807     73.6461
#   44      0.0129     76.0974
#   45      0.2404     78.5778
#   46      0.0083     81.0911
#   47      0.1635     83.6414
#   48      0.0049     86.2330
#   49      0.0993     88.8706
#   50      0.0029     91.5597
#   51      0.0627     94.3061
#   52      0.0015     97.1167
#   53      0.0455     99.9992
#   54      0.0006    102.9627
#   55      0.0244    106.0179
#   56      0.0002    109.1776
#   57      0.0071    112.4573
#   58      0.0000    115.8765
#   59      0.0010    119.4594
#   60      0.0000    123.2382
#   61      0.0001    127.2557
#   62      0.0000    131.5723
#   63      0.0001    136.2774
#   64      0.0000    141.5142
#   65      0.0001    147.5403
#   66      0.0000    154.9196
#   67      0.0002    165.6034
   0    4.89755E+01    1.0000000000000000
   1    4.16128E+01    0.8496666807754809
   2    3.14825E+01    0.6428222673601502
   3    2.30730E+01    0.4711130613336890
   4    1.76060E+01    0.3594850677927995
   5    1.40936E+01    0.2877684836987917
   6    1.15075E+01    0.2349649876099849
   7    9.45049E+00    0.1929636731045492
   8    7.90312E+00    0.1613689269803466
   9    6.89635E+00    0.1408122232932331
  10    6.28325E+00    0.1282938896325673
  11    5.79770E+00    0.1183795436156860
  12    5.30142E+00    0.1082464983982639
  13    4.81444E+00    0.0983029839066203
  14    4.38163E+00    0.0894658858878562
  15    4.02144E+00    0.0821112445033903
  16    3.73139E+00    0.0761888527483860
  17    3.48288E+00    0.0711147087594417
  18    3.26158E+00    0.0665962160746299
  19    3.08113E+00    0.0629117109989911
  20    2.93429E+00    0.0599135048476577
  21    2.78257E+00    0.0568156465785400
  22    2.61545E+00    0.0534033325171529
  23    2.46333E+00    0.0502972525373797
  24    2.34929E+00    0.0479686010416256
  25    2.26164E+00    0.0461790937075391
  26    2.17875E+00    0.0444866207951813
  27    2.09179E+00    0.0427110617946245
  28    2.00473E+00    0.0409334117699069
  29    1.92236E+00    0.0392513864497279
  30    1.84614E+00    0.0376951700376384
  31    1.77650E+00    0.0362733249116711
  32    1.71153E+00    0.0349466404962234
  33    1.64797E+00    0.0336489153263186
  34    1.59408E+00    0.0325486164526425
  35    1.52266E+00    0.0310903461657948
  36    1.48699E+00    0.0303618730585765
  37    1.39554E+00    0.0284945941516208
  38    1.37679E+00    0.0281118019621305
  39    1.28071E+00    0.0261500803818948
  40    1.27499E+00    0.0260331587837363
  41    1.17537E+00    0.0239991723145207
  42    1.24262E+00    0.0253722577575053
  43    1.08106E+00    0.0220734627216880
  44    1.14692E+00    0.0234181720438429
  45    8.84565E-01    0.0180613811561467
  46    1.14130E+00    0.0233034749995547
  47    5.60953E-01    0.0114537454873024
  48    1.55871E+00    0.0318262861397064
