  # July 4, 2014 12:22:22
 # jmin,jmax    0   50
 # Eau     0.00200000
 # r0,ra,rb,rdel,tol,Bau,mu   3.5000  25.0000  25.0000   4.0000  1.0000E-03  3.0130E-07  6.8548E+03
 # parity bigJ  0  0        1  0        1  1        2  0        2  1        2  2        3  0        3  1        3  2        3  3
 # jmin,jmax,maxlamb are            0          50         100
 # j and jp are          32          50
 # lam  B-lambda(j,jp)  angle
#   18     20.5059      5.9953
#   19      1.2772     10.5948
#   20      8.6088     13.8886
#   21      0.6505     16.6712
#   22      5.6886     19.1679
#   23      0.4302     21.4802
#   24      4.1559     23.6635
#   25      0.3268     25.7519
#   26      3.2179     27.7682
#   27      0.2542     29.7284
#   28      2.5269     31.6441
#   29      0.1970     33.5244
#   30      1.9582     35.3762
#   31      0.1535     37.2050
#   32      1.4327     39.0154
#   33      0.1214     40.8112
#   34      1.0246     42.5957
#   35      0.0969     44.3716
#   36      0.8199     46.1414
#   37      0.0777     47.9072
#   38      0.7148     49.6710
#   39      0.0616     51.4344
#   40      0.5913     53.1993
#   41      0.0469     54.9670
#   42      0.4564     56.7390
#   43      0.0334     58.5167
#   44      0.3500     60.3014
#   45      0.0212     62.0945
#   46      0.2482     63.8973
#   47      0.0111     65.7109
#   48      0.1332     67.5368
#   49      0.0046     69.3763
#   50      0.0473     71.2306
#   51      0.0017     73.1013
#   52      0.0132     74.9897
#   53      0.0006     76.8975
#   54      0.0054     78.8261
#   55      0.0002     80.7774
#   56      0.0023     82.7531
#   57      0.0000     84.7553
#   58      0.0006     86.7861
#   59      0.0000     88.8477
#   60      0.0001     90.9428
#   61      0.0000     93.0741
#   62      0.0000     95.2447
#   63      0.0000     97.4581
#   64      0.0000     99.7182
#   65      0.0000    102.0293
#   66      0.0000    104.3966
#   67      0.0000    106.8257
#   68      0.0000    109.3235
#   69      0.0000    111.8976
#   70      0.0000    114.5575
#   71      0.0000    117.3144
#   72      0.0000    120.1821
#   73      0.0000    123.1776
#   74      0.0000    126.3226
#   75      0.0000    129.6455
#   76      0.0000    133.1844
#   77      0.0000    136.9932
#   78      0.0000    141.1513
#   79      0.0000    145.7864
#   80      0.0000    151.1278
#   81      0.0000    157.6773
#   82      0.0000    167.1691
   0    3.24733E+01    1.0000000000000000
   1    2.89162E+01    0.8904601349652591
   2    2.32762E+01    0.7167806970365821
   3    1.75552E+01    0.5406051540078065
   4    1.31454E+01    0.4048063400509557
   5    1.03252E+01    0.3179587858667725
   6    8.58749E+00    0.2644477846273582
   7    7.32595E+00    0.2255992740615282
   8    6.26759E+00    0.1930076766610001
   9    5.43719E+00    0.1674359281958988
  10    4.88914E+00    0.1505589890838883
  11    4.54517E+00    0.1399664402578391
  12    4.24929E+00    0.1308548803502520
  13    3.90572E+00    0.1202748032389058
  14    3.53153E+00    0.1087518414835925
  15    3.19502E+00    0.0983891360114780
  16    2.93330E+00    0.0903295705957868
  17    2.73322E+00    0.0841681845053622
  18    2.56811E+00    0.0790836531531837
  19    2.42827E+00    0.0747773353863050
  20    2.31335E+00    0.0712385360136907
  21    2.21206E+00    0.0681192859377499
  22    2.10443E+00    0.0648050572809028
  23    1.98336E+00    0.0610766311478955
  24    1.86389E+00    0.0573975235545558
  25    1.76685E+00    0.0544092977627426
  26    1.69719E+00    0.0522643344907999
  27    1.64182E+00    0.0505592481915391
  28    1.58553E+00    0.0488256678506724
  29    1.52424E+00    0.0469381746812359
  30    1.46341E+00    0.0450650540143909
  31    1.40871E+00    0.0433807162793174
  32    1.36108E+00    0.0419138057112605
  33    1.31865E+00    0.0406072021880534
  34    1.28004E+00    0.0394181621690268
  35    1.24488E+00    0.0383354490150632
  36    1.21273E+00    0.0373455523411329
  37    1.18267E+00    0.0364198398867705
  38    1.15385E+00    0.0355322196495032
  39    1.12598E+00    0.0346740625347549
  40    1.09921E+00    0.0338495668231268
  41    1.07366E+00    0.0330628502356147
  42    1.04927E+00    0.0323116707125552
  43    1.02583E+00    0.0315898343756571
  44    1.00317E+00    0.0308921773134275
  45    9.81228E-01    0.0302164672001033
  46    9.60076E-01    0.0295650931464499
  47    9.39796E-01    0.0289405907446908
  48    9.20568E-01    0.0283484643490395
  49    9.02525E-01    0.0277928455198855
  50    8.85592E-01    0.0272713937301868
  51    8.69532E-01    0.0267768358677898
  52    8.54448E-01    0.0263123357488061
  53    8.38646E-01    0.0258257334687233
  54    8.20997E-01    0.0252822369877581
  55    8.07325E-01    0.0248612003681059
  56    7.96983E-01    0.0245427448507415
  57    7.77768E-01    0.0239510194244763
  58    7.75415E-01    0.0238785542640384
  59    7.91986E-01    0.0243888544490572
  60    7.69589E-01    0.0236991432667069
  61    6.88259E-01    0.0211946379351968
  62    7.46151E-01    0.0229773880262354
  63    4.49178E-01    0.0138322278639394
  64    9.34492E-01    0.0287772574182419
