  # July 4, 2014 12:22:22
 # jmin,jmax    0   50
 # Eau     0.00200000
 # r0,ra,rb,rdel,tol,Bau,mu   3.5000  25.0000  25.0000   4.0000  1.0000E-03  3.0130E-07  6.8548E+03
 # parity bigJ  0  0        1  0        1  1        2  0        2  1        2  2        3  0        3  1        3  2        3  3
 # jmin,jmax,maxlamb are            0          50         100
 # j and jp are          31          50
 # lam  B-lambda(j,jp)  angle
#   19     31.7965      6.2561
#   20      2.9081     11.0471
#   21     14.6363     14.4728
#   22      1.6552     17.3629
#   23     10.3900     19.9530
#   24      0.8619     22.3493
#   25      7.4810     24.6099
#   26      0.4783     26.7706
#   27      5.4965     28.8554
#   28      0.2962     30.8809
#   29      4.1891     32.8596
#   30      0.2093     34.8009
#   31      3.3421     36.7121
#   32      0.1601     38.5992
#   33      2.7478     40.4669
#   34      0.1250     42.3194
#   35      2.3097     44.1600
#   36      0.0966     45.9917
#   37      1.8921     47.8171
#   38      0.0720     49.6386
#   39      1.3679     51.4582
#   40      0.0512     53.2778
#   41      0.8486     55.0992
#   42      0.0344     56.9241
#   43      0.4598     58.7540
#   44      0.0215     60.5904
#   45      0.2138     62.4349
#   46      0.0129     64.2889
#   47      0.1008     66.1538
#   48      0.0074     68.0311
#   49      0.0680     69.9223
#   50      0.0037     71.8288
#   51      0.0451     73.7523
#   52      0.0013     75.6942
#   53      0.0189     77.6564
#   54      0.0003     79.6407
#   55      0.0043     81.6488
#   56      0.0001     83.6829
#   57      0.0006     85.7452
#   58      0.0000     87.8380
#   59      0.0001     89.9640
#   60      0.0000     92.1259
#   61      0.0001     94.3270
#   62      0.0000     96.5708
#   63      0.0000     98.8613
#   64      0.0000    101.2028
#   65      0.0000    103.6005
#   66      0.0000    106.0602
#   67      0.0000    108.5888
#   68      0.0000    111.1941
#   69      0.0000    113.8856
#   70      0.0000    116.6746
#   71      0.0000    119.5751
#   72      0.0000    122.6043
#   73      0.0000    125.7841
#   74      0.0000    129.1431
#   75      0.0000    132.7199
#   76      0.0000    136.5687
#   77      0.0000    140.7700
#   78      0.0000    145.4524
#   79      0.0000    150.8475
#   80      0.0000    157.4620
#   81      0.0000    167.0469
   0    5.74769E+01    1.0000000000000000
   1    5.12890E+01    0.8923410352154291
   2    4.12416E+01    0.7175327575347479
   3    3.06499E+01    0.5332560627118063
   4    2.21118E+01    0.3847070541708389
   5    1.65552E+01    0.2880329308324319
   6    1.34318E+01    0.2336902978404186
   7    1.15971E+01    0.2017703424653309
   8    1.01336E+01    0.1763080152177981
   9    8.68284E+00    0.1510665670692214
  10    7.32451E+00    0.1274340033491706
  11    6.27338E+00    0.1091461920487598
  12    5.63307E+00    0.0980057655744674
  13    5.31657E+00    0.0924992159667037
  14    5.12544E+00    0.0891738997647334
  15    4.89506E+00    0.0851656100104505
  16    4.58540E+00    0.0797781837167847
  17    4.25691E+00    0.0740629572529578
  18    3.97824E+00    0.0692146411802247
  19    3.76335E+00    0.0654759121944870
  20    3.58230E+00    0.0623259101403517
  21    3.40674E+00    0.0592715242454323
  22    3.23184E+00    0.0562285086482418
  23    3.06446E+00    0.0533163477374623
  24    2.90808E+00    0.0505956487732689
  25    2.76380E+00    0.0480854276816035
  26    2.63642E+00    0.0458692187193706
  27    2.53105E+00    0.0440359076962647
  28    2.44508E+00    0.0425402538973303
  29    2.36868E+00    0.0412110496075364
  30    2.29398E+00    0.0399113796994496
  31    2.22145E+00    0.0386494461303652
  32    2.15684E+00    0.0375254185713987
  33    2.10401E+00    0.0366062640109288
  34    2.06169E+00    0.0358698317013116
  35    2.02575E+00    0.0352445409415018
  36    1.99285E+00    0.0346721618442726
  37    1.96180E+00    0.0341319827367892
  38    1.93275E+00    0.0336264982831646
  39    1.90590E+00    0.0331593761092699
  40    1.88098E+00    0.0327258361192742
  41    1.85732E+00    0.0323141518736254
  42    1.83415E+00    0.0319111107242834
  43    1.81083E+00    0.0315053902681984
  44    1.78690E+00    0.0310890713076026
  45    1.76210E+00    0.0306575657275514
  46    1.73633E+00    0.0302091363249691
  47    1.70942E+00    0.0297409211652202
  48    1.68136E+00    0.0292527234404369
  49    1.65158E+00    0.0287346667380195
  50    1.61925E+00    0.0281721543869544
  51    1.58407E+00    0.0275600766693426
  52    1.54579E+00    0.0268940624008444
  53    1.50213E+00    0.0261345517964208
  54    1.46197E+00    0.0254357285316475
  55    1.43829E+00    0.0250237095055931
  56    1.40382E+00    0.0244241142485943
  57    1.34917E+00    0.0234732318037836
  58    1.33997E+00    0.0233132416396297
  59    1.26211E+00    0.0219585142313733
  60    1.31254E+00    0.0228358801057115
  61    1.37842E+00    0.0239821526372976
  62    1.84990E+00    0.0321850199263600
