  # July 4, 2014 12:22:22
 # jmin,jmax    0   50
 # Eau     0.00200000
 # r0,ra,rb,rdel,tol,Bau,mu   3.5000  25.0000  25.0000   4.0000  1.0000E-03  3.0130E-07  6.8548E+03
 # parity bigJ  0  0        1  0        1  1        2  0        2  1        2  2        3  0        3  1        3  2        3  3
 # jmin,jmax,maxlamb are            0          50         100
 # j and jp are          20          45
 # lam  B-lambda(j,jp)  angle
#   25     14.7830      9.3607
#   26      0.6046     16.5041
#   27      6.4965     21.5898
#   28      0.2632     25.8665
#   29      4.3495     29.6908
#   30      0.1853     33.2239
#   31      3.0034     36.5546
#   32      0.1283     39.7385
#   33      1.9729     42.8128
#   34      0.0885     45.8041
#   35      1.3043     48.7324
#   36      0.0609     51.6132
#   37      0.9973     54.4590
#   38      0.0406     57.2802
#   39      0.8230     60.0857
#   40      0.0262     62.8833
#   41      0.5835     65.6800
#   42      0.0162     68.4823
#   43      0.3655     71.2964
#   44      0.0098     74.1284
#   45      0.2591     76.9841
#   46      0.0059     79.8697
#   47      0.1845     82.7915
#   48      0.0037     85.7562
#   49      0.1060     88.7709
#   50      0.0022     91.8438
#   51      0.0635     94.9836
#   52      0.0012     98.2006
#   53      0.0449    101.5067
#   54      0.0005    104.9156
#   55      0.0234    108.4443
#   56      0.0001    112.1134
#   57      0.0068    115.9491
#   58      0.0000    119.9852
#   59      0.0010    124.2672
#   60      0.0000    128.8587
#   61      0.0001    133.8540
#   62      0.0000    139.4041
#   63      0.0001    145.7800
#   64      0.0000    153.5757
#   65      0.0002    164.8476
   0    3.52719E+01    1.0000000000000000
   1    2.93158E+01    0.8311385740055606
   2    2.13108E+01    0.6041872944172215
   3    1.48607E+01    0.4213169467075872
   4    1.07818E+01    0.3056757741974237
   5    8.29227E+00    0.2350956082568693
   6    6.67481E+00    0.1892388317676046
   7    5.56533E+00    0.1577835447114390
   8    4.80249E+00    0.1361562463575579
   9    4.31714E+00    0.1223958968744725
  10    4.00264E+00    0.1134794724879482
  11    3.72696E+00    0.1056637570705480
  12    3.43044E+00    0.0972569997659616
  13    3.10465E+00    0.0880204549339681
  14    2.77811E+00    0.0787627769437587
  15    2.52294E+00    0.0715283649634179
  16    2.37547E+00    0.0673473482228284
  17    2.27778E+00    0.0645776278532648
  18    2.16354E+00    0.0613387757737236
  19    2.03441E+00    0.0576778189324965
  20    1.92411E+00    0.0545507805219934
  21    1.83984E+00    0.0521615839325955
  22    1.76816E+00    0.0501294085048743
  23    1.69956E+00    0.0481844786833461
  24    1.63467E+00    0.0463447627276235
  25    1.57507E+00    0.0446552081457193
  26    1.52078E+00    0.0431159617460957
  27    1.46938E+00    0.0416586843873430
  28    1.42394E+00    0.0403702402654910
  29    1.37169E+00    0.0388891250206102
  30    1.33834E+00    0.0379435823461453
  31    1.26958E+00    0.0359940785496275
  32    1.25492E+00    0.0355783186644420
  33    1.15858E+00    0.0328471315645275
  34    1.14670E+00    0.0325103677683989
  35    1.03188E+00    0.0292548873145810
  36    1.00846E+00    0.0285909015559979
  37    7.75195E-01    0.0219776913283722
  38    8.74598E-01    0.0247958686919464
  39    6.25953E-01    0.0177464963901167
  40    1.08916E+00    0.0308789706164772
