  # July 4, 2014 12:22:22
 # jmin,jmax    0   50
 # Eau     0.00200000
 # r0,ra,rb,rdel,tol,Bau,mu   3.5000  25.0000  25.0000   4.0000  1.0000E-03  3.0130E-07  6.8548E+03
 # parity bigJ  0  0        1  0        1  1        2  0        2  1        2  2        3  0        3  1        3  2        3  3
 # jmin,jmax,maxlamb are            0          50         100
 # j and jp are          30          31
 # lam  B-lambda(j,jp)  angle
#    1   1222.6905      1.8486
#    2      8.5782      4.1347
#    3    212.8660      6.1344
#    4      4.7065      8.0650
#    5     93.8291      9.9682
#    6      3.1757     11.8588
#    7     52.6216     13.7435
#    8      2.2505     15.6260
#    9     33.4145     17.5089
#   10      1.7076     19.3938
#   11     22.5504     21.2818
#   12      1.2579     23.1741
#   13     15.7042     25.0717
#   14      1.0047     26.9752
#   15     11.4767     28.8856
#   16      0.7729     30.8036
#   17      8.2240     32.7299
#   18      0.5535     34.6653
#   19      6.2103     36.6106
#   20      0.4051     38.5666
#   21      4.6506     40.5340
#   22      0.3197     42.5137
#   23      3.4675     44.5065
#   24      0.2513     46.5135
#   25      2.7510     48.5356
#   26      0.1929     50.5736
#   27      2.1687     52.6289
#   28      0.1516     54.7024
#   29      1.7773     56.7953
#   30      0.1204     58.9091
#   31      1.4711     61.0450
#   32      0.0951     63.2045
#   33      1.1910     65.3893
#   34      0.0748     67.6012
#   35      0.9911     69.8419
#   36      0.0575     72.1135
#   37      0.8463     74.4184
#   38      0.0427     76.7590
#   39      0.7366     79.1380
#   40      0.0305     81.5586
#   41      0.6217     84.0240
#   42      0.0204     86.5381
#   43      0.4574     89.1052
#   44      0.0130     91.7302
#   45      0.2934     94.4186
#   46      0.0083     97.1770
#   47      0.1955    100.0128
#   48      0.0052    102.9348
#   49      0.1351    105.9535
#   50      0.0031    109.0815
#   51      0.0861    112.3343
#   52      0.0017    115.7312
#   53      0.0624    119.2965
#   54      0.0008    123.0622
#   55      0.0465    127.0715
#   56      0.0002    131.3849
#   57      0.0233    136.0923
#   58      0.0000    141.3379
#   59      0.0065    147.3806
#   60      0.0000    154.7879
#   61      0.0013    165.5225
   0    1.79249E+02    1.0000000000000000
   1    1.62944E+02    0.9090369900827117
   2    1.42538E+02    0.7951952033334978
   3    1.26095E+02    0.7034626411026774
   4    1.13542E+02    0.6334279312417975
   5    1.03095E+02    0.5751481929669550
   6    9.42113E+01    0.5255877431336307
   7    8.70697E+01    0.4857462708859319
   8    8.14285E+01    0.4542750232035780
   9    7.66217E+01    0.4274586774300393
  10    7.24081E+01    0.4039518947020622
  11    6.87942E+01    0.3837905460760321
  12    6.56584E+01    0.3662963018537883
  13    6.28046E+01    0.3503756181774753
  14    6.01489E+01    0.3355599813465135
  15    5.77336E+01    0.3220855690892845
  16    5.55972E+01    0.3101668060816276
  17    5.36211E+01    0.2991425757114637
  18    5.17686E+01    0.2888079504037744
  19    5.00391E+01    0.2791589668220990
  20    4.84590E+01    0.2703440982854346
  21    4.69455E+01    0.2619005760635797
  22    4.55551E+01    0.2541435635273060
  23    4.42131E+01    0.2466568887212573
  24    4.29950E+01    0.2398611622608165
  25    4.17750E+01    0.2330553689055051
  26    4.06901E+01    0.2270030096237200
  27    3.95799E+01    0.2208093804886428
  28    3.86061E+01    0.2153764412718202
  29    3.75677E+01    0.2095833987736276
  30    3.66695E+01    0.2045726134449063
  31    3.57125E+01    0.1992335992128516
  32    3.49287E+01    0.1948608768857823
  33    3.40683E+01    0.1900611281357595
  34    3.33905E+01    0.1862796541158942
  35    3.25529E+01    0.1816069916994134
  36    3.19290E+01    0.1781261970325267
  37    3.10794E+01    0.1733866065061155
  38    3.05089E+01    0.1702036462840601
  39    2.96703E+01    0.1655252289710044
  40    2.91950E+01    0.1628735624887982
  41    2.83398E+01    0.1581027633725292
  42    2.80267E+01    0.1563559188624915
  43    2.70784E+01    0.1510657220846824
  44    2.69704E+01    0.1504630591015722
  45    2.59209E+01    0.1446082948857645
  46    2.59755E+01    0.1449127230450321
  47    2.47817E+01    0.1382526858070752
  48    2.49511E+01    0.1391977619722205
  49    2.37153E+01    0.1323032592296560
  50    2.41305E+01    0.1346195816795052
  51    2.27726E+01    0.1270444028873801
  52    2.34704E+01    0.1309371860386927
  53    2.18007E+01    0.1216221186939250
  54    2.29582E+01    0.1280795452788057
  55    2.08960E+01    0.1165752981068688
  56    2.28793E+01    0.1276395772492905
  57    1.97837E+01    0.1103699959159067
  58    2.39499E+01    0.1336122106563801
  59    1.78748E+01    0.0997202260712917
  60    3.10569E+01    0.1732606434230128
