  # July 4, 2014 12:22:22
 # jmin,jmax    0   50
 # Eau     0.00200000
 # r0,ra,rb,rdel,tol,Bau,mu   3.5000  25.0000  25.0000   4.0000  1.0000E-03  3.0130E-07  6.8548E+03
 # parity bigJ  0  0        1  0        1  1        2  0        2  1        2  2        3  0        3  1        3  2        3  3
 # jmin,jmax,maxlamb are            0          50         100
 # j and jp are          10          50
 # lam  B-lambda(j,jp)  angle
#   40      1.0455     15.6452
#   41      0.0033     27.6824
#   42      0.4461     36.2703
#   43      0.0033     43.5274
#   44      0.2700     50.0614
#   45      0.0026     56.1514
#   46      0.1817     61.9562
#   47      0.0017     67.5793
#   48      0.1230     73.0958
#   49      0.0009     78.5651
#   50      0.0692     84.0392
#   51      0.0004     89.5673
#   52      0.0278     95.1999
#   53      0.0001    100.9937
#   54      0.0087    107.0174
#   55      0.0000    113.3601
#   56      0.0037    120.1486
#   57      0.0000    127.5800
#   58      0.0021    136.0033
#   59      0.0000    146.1790
#   60      0.0011    160.7465
   0    4.08712E+00    1.0000000000000000
   1    3.02442E+00    0.7399894737599635
   2    1.82864E+00    0.4474162348127197
   3    1.12134E+00    0.2743590560590040
   4    8.57807E-01    0.2098806195132595
   5    7.26818E-01    0.1778314846436265
   6    5.99381E-01    0.1466513274494059
   7    4.97964E-01    0.1218374006663206
   8    4.43972E-01    0.1086272701226238
   9    4.02121E-01    0.0983875374644020
  10    3.64582E-01    0.0892027995224028
  11    3.26805E-01    0.0799598946955876
  12    3.00440E-01    0.0735090907643945
  13    2.72467E-01    0.0666649034616608
  14    2.53877E-01    0.0621163733876690
  15    2.29366E-01    0.0561191697730091
  16    2.15719E-01    0.0527802951162672
  17    1.93506E-01    0.0473454326431179
  18    1.86940E-01    0.0457387299028153
  19    1.63924E-01    0.0401074535411482
  20    2.17974E-01    0.0533318774947524
