  # July 4, 2014 12:22:22
 # jmin,jmax    0   50
 # Eau     0.00200000
 # r0,ra,rb,rdel,tol,Bau,mu   3.5000  25.0000  25.0000   4.0000  1.0000E-03  3.0130E-07  6.8548E+03
 # parity bigJ  0  0        1  0        1  1        2  0        2  1        2  2        3  0        3  1        3  2        3  3
 # jmin,jmax,maxlamb are            0          50         100
 # j and jp are          19          47
 # lam  B-lambda(j,jp)  angle
#   28      5.7948      9.9384
#   29      0.0727     17.5084
#   30      2.6073     22.8873
#   31      0.0506     27.4031
#   32      1.7942     31.4353
#   33      0.0419     35.1559
#   34      1.2503     38.6600
#   35      0.0319     42.0068
#   36      0.8034     45.2363
#   37      0.0235     48.3773
#   38      0.5190     51.4512
#   39      0.0176     54.4749
#   40      0.3596     57.4620
#   41      0.0132     60.4240
#   42      0.2594     63.3708
#   43      0.0092     66.3109
#   44      0.1909     69.2524
#   45      0.0058     72.2027
#   46      0.1597     75.1690
#   47      0.0036     78.1584
#   48      0.1458     81.1780
#   49      0.0022     84.2353
#   50      0.1050     87.3381
#   51      0.0010     90.4951
#   52      0.0493     93.7155
#   53      0.0004     97.0101
#   54      0.0162    100.3911
#   55      0.0002    103.8729
#   56      0.0057    107.4726
#   57      0.0000    111.2115
#   58      0.0021    115.1161
#   59      0.0000    119.2208
#   60      0.0005    123.5716
#   61      0.0000    128.2330
#   62      0.0002    133.3004
#   63      0.0000    138.9264
#   64      0.0001    145.3851
#   65      0.0000    153.2770
#   66      0.0001    164.6817
   0    1.52037E+01    1.0000000000000000
   1    1.24189E+01    0.8168344327531903
   2    8.79495E+00    0.5784732603208503
   3    6.04449E+00    0.3975660067778221
   4    4.37943E+00    0.2880495845848034
   5    3.28682E+00    0.2161850087680764
   6    2.54921E+00    0.1676702659381594
   7    2.18396E+00    0.1436461675414074
   8    2.04640E+00    0.1345985164951463
   9    1.90995E+00    0.1256240873627482
  10    1.72572E+00    0.1135060757971292
  11    1.56989E+00    0.1032569418126717
  12    1.45470E+00    0.0956801457057525
  13    1.33018E+00    0.0874900580840918
  14    1.19841E+00    0.0788235435412126
  15    1.10073E+00    0.0723984030009257
  16    1.04136E+00    0.0684935908101591
  17    9.90457E-01    0.0651456551938544
  18    9.36507E-01    0.0615971560254775
  19    8.86983E-01    0.0583398276229760
  20    8.46060E-01    0.0556481559628016
  21    8.08907E-01    0.0532044850515334
  22    7.73813E-01    0.0508962719771040
  23    7.41784E-01    0.0487895701176517
  24    7.14339E-01    0.0469844311507840
  25    6.89925E-01    0.0453786571523820
  26    6.68818E-01    0.0439903907814078
  27    6.47285E-01    0.0425740547517068
  28    6.29753E-01    0.0414209212411794
  29    6.06174E-01    0.0398700867218353
  30    5.87785E-01    0.0386605946919896
  31    5.57470E-01    0.0366666478229275
  32    5.30202E-01    0.0348731787454698
  33    4.87290E-01    0.0320506905837359
  34    4.74756E-01    0.0312263114605303
  35    3.57293E-01    0.0235003654849360
  36    4.44247E-01    0.0292196016095104
  37    2.30726E-01    0.0151756379753798
  38    4.34810E-01    0.0285989261751638
