  # July 4, 2014 12:22:22
 # jmin,jmax    0   50
 # Eau     0.00200000
 # r0,ra,rb,rdel,tol,Bau,mu   3.5000  25.0000  25.0000   4.0000  1.0000E-03  3.0130E-07  6.8548E+03
 # parity bigJ  0  0        1  0        1  1        2  0        2  1        2  2        3  0        3  1        3  2        3  3
 # jmin,jmax,maxlamb are            0          50         100
 # j and jp are          29          50
 # lam  B-lambda(j,jp)  angle
#   21     24.6529      6.7952
#   22      1.5720     11.9842
#   23     11.7170     15.6849
#   24      0.9599     18.7999
#   25      7.8299     21.5862
#   26      0.5442     24.1595
#   27      5.6151     26.5836
#   28      0.3058     28.8978
#   29      4.1866     31.1281
#   30      0.1955     33.2933
#   31      3.2810     35.4068
#   32      0.1447     37.4792
#   33      2.6656     39.5185
#   34      0.1128     41.5314
#   35      2.2186     43.5234
#   36      0.0875     45.4988
#   37      1.8209     47.4617
#   38      0.0654     49.4154
#   39      1.3353     51.3629
#   40      0.0465     53.3067
#   41      0.8388     55.2495
#   42      0.0313     57.1933
#   43      0.4598     59.1404
#   44      0.0197     61.0926
#   45      0.2173     63.0519
#   46      0.0118     65.0201
#   47      0.0998     66.9991
#   48      0.0069     68.9908
#   49      0.0643     70.9968
#   50      0.0035     73.0192
#   51      0.0445     75.0598
#   52      0.0013     77.1206
#   53      0.0203     79.2038
#   54      0.0003     81.3116
#   55      0.0051     83.4463
#   56      0.0001     85.6104
#   57      0.0007     87.8068
#   58      0.0000     90.0385
#   59      0.0001     92.3087
#   60      0.0000     94.6211
#   61      0.0001     96.9799
#   62      0.0000     99.3896
#   63      0.0000    101.8554
#   64      0.0000    104.3835
#   65      0.0000    106.9808
#   66      0.0000    109.6554
#   67      0.0000    112.4171
#   68      0.0000    115.2773
#   69      0.0000    118.2503
#   70      0.0000    121.3538
#   71      0.0000    124.6102
#   72      0.0000    128.0486
#   73      0.0000    131.7085
#   74      0.0000    135.6451
#   75      0.0000    139.9405
#   76      0.0000    144.7262
#   77      0.0000    150.2384
#   78      0.0000    156.9943
#   79      0.0000    166.7815
   0    4.81714E+01    1.0000000000000000
   1    4.26029E+01    0.8844011043731355
   2    3.36736E+01    0.6990369491154262
   3    2.44669E+01    0.5079137108107762
   4    1.72964E+01    0.3590585116180834
   5    1.28638E+01    0.2670424122004149
   6    1.05400E+01    0.2188011950427179
   7    9.23886E+00    0.1917912247616408
   8    8.15540E+00    0.1692995826232903
   9    7.01430E+00    0.1456110718713078
  10    5.92248E+00    0.1229459659060489
  11    5.08574E+00    0.1055758451352033
  12    4.59196E+00    0.0953253866676128
  13    4.35288E+00    0.0903623069671455
  14    4.19338E+00    0.0870511615078456
  15    3.98877E+00    0.0828036686658491
  16    3.72946E+00    0.0774205958755730
  17    3.47547E+00    0.0721480020743260
  18    3.27234E+00    0.0679310293776326
  19    3.11686E+00    0.0647035657513710
  20    2.98361E+00    0.0619372237768273
  21    2.85798E+00    0.0593293070574267
  22    2.73902E+00    0.0568597323180709
  23    2.62623E+00    0.0545183303014353
  24    2.51707E+00    0.0522523344946528
  25    2.41390E+00    0.0501106203556405
  26    2.32382E+00    0.0482406656270791
  27    2.24974E+00    0.0467027136062500
  28    2.18578E+00    0.0453750972100167
  29    2.12322E+00    0.0440763506737037
  30    2.05845E+00    0.0427316911728843
  31    1.99411E+00    0.0413960954159744
  32    1.93433E+00    0.0401551125349898
  33    1.88064E+00    0.0390404659926891
  34    1.83186E+00    0.0380279209046402
  35    1.78616E+00    0.0370791307297830
  36    1.74243E+00    0.0361714357870843
  37    1.70042E+00    0.0352992577597360
  38    1.66018E+00    0.0344639604949697
  39    1.62172E+00    0.0336656666410056
  40    1.58491E+00    0.0329014616906239
  41    1.54945E+00    0.0321652891649223
  42    1.51498E+00    0.0314497784339285
  43    1.48096E+00    0.0307436309176318
  44    1.44702E+00    0.0300389132856733
  45    1.41257E+00    0.0293237593980610
  46    1.37747E+00    0.0285952064758654
  47    1.34229E+00    0.0278648788541273
  48    1.30803E+00    0.0271536219631074
  49    1.27497E+00    0.0264672736143706
  50    1.24804E+00    0.0259082825174462
  51    1.22610E+00    0.0254528506621265
  52    1.18853E+00    0.0246728537738606
  53    1.14843E+00    0.0238404360978408
  54    1.14671E+00    0.0238046705681090
  55    1.10313E+00    0.0228999864224709
  56    1.18261E+00    0.0245500007041493
  57    1.23349E+00    0.0256062893013622
  58    1.44369E+00    0.0299699220311448
