#Theta He10 He15 diff
0.0 0.0000000 0.0000000 0
0.1 1.0656649 1.0639977 0.0016672
0.2 2.1307513 2.1274180 0.0033333
0.3 3.1946812 3.1896836 0.0049976
0.4 4.2568773 4.2502184 0.0066589
0.5 5.3167636 5.3084473 0.0083163
0.6 6.3737657 6.3637969 0.0099688
0.7 7.4273112 7.4156957 0.0116155
0.8 8.4768301 8.4635748 0.0132553
0.9 9.5217554 9.5068679 0.0148875
1.0 10.5615231 10.5450123 0.0165108
1.1 11.5955730 11.5774485 0.0181245
1.2 12.6233489 12.6036212 0.0197277
1.3 13.6442988 13.6229795 0.0213193
1.4 14.6578758 14.6349774 0.0228984
1.5 15.6635380 15.6390738 0.0244642
1.6 16.6607491 16.6347333 0.0260158
1.7 17.6489787 17.6214265 0.0275522
1.8 18.6277026 18.5986301 0.0290725
1.9 19.5964036 19.5658276 0.030576
2.0 20.5545712 20.5225095 0.0320617
2.1 21.5017024 21.4681735 0.0335289
2.2 22.4373019 22.4023253 0.0349766
2.3 23.3608825 23.3244783 0.0364042
2.4 24.2719654 24.2341547 0.0378107
2.5 25.1700806 25.1308852 0.0391954
2.6 26.0547670 26.0142094 0.0405576
2.7 26.9255731 26.8836766 0.0418965
2.8 27.7820569 27.7388455 0.0432114
2.9 28.6237864 28.5792849 0.0445015
3.0 29.4503401 29.4045738 0.0457663
3.1 30.2613068 30.2143019 0.0470049
3.2 31.0562864 31.0080695 0.0482169
3.3 31.8348898 31.7854883 0.0494015
3.4 32.5967392 32.5461811 0.0505581
3.5 33.3414686 33.2897824 0.0516862
3.6 34.0687238 34.0159386 0.0527852
3.7 34.7781627 34.7243083 0.0538544
3.8 35.4694556 35.4145620 0.0548936
3.9 36.1422854 36.0863833 0.0559021
4.0 36.7963477 36.7394683 0.0568794
4.1 37.4313510 37.3735258 0.0578252
4.2 38.0470171 37.9882781 0.058739
4.3 38.6430810 38.5834607 0.0596203
4.4 39.2192913 39.1588224 0.0604689
4.5 39.7754103 39.7141259 0.0612844
4.6 40.3112139 40.2491475 0.0620664
4.7 40.8264922 40.7636775 0.0628147
4.8 41.3210491 41.2575201 0.063529
4.9 41.7947029 41.7304939 0.064209
5.0 42.2472860 42.1824315 0.0648545
5.1 42.6786455 42.6131801 0.0654654
5.2 43.0886425 43.0226010 0.0660415
5.3 43.4771530 43.4105705 0.0665825
5.4 43.8440675 43.7769790 0.0670885
5.5 44.1892911 44.1217317 0.0675594
5.6 44.5127436 44.4447486 0.067995
5.7 44.8143595 44.7459642 0.0683953
5.8 45.0940882 45.0253277 0.0687605
5.9 45.3518934 45.2828031 0.0690903
6.0 45.5877541 45.5183691 0.069385
6.1 45.8016636 45.7320190 0.0696446
6.2 45.9936301 45.9237609 0.0698692
6.3 46.1636764 46.0936174 0.070059
6.4 46.3118397 46.2416257 0.070214
6.5 46.4381721 46.3678376 0.0703345
6.6 46.5427399 46.4723192 0.0704207
6.7 46.6256239 46.5551510 0.0704729
6.8 46.6869192 46.6164280 0.0704912
6.9 46.7267350 46.6562590 0.070476
7.0 46.7451947 46.6747672 0.0704275
7.1 46.7424357 46.6720893 0.0703464
7.2 46.7186089 46.6483763 0.0702326
7.3 46.6738793 46.6037926 0.0700867
7.4 46.6084251 46.5385160 0.0699091
7.5 46.5224381 46.4527378 0.0697003
7.6 46.4161232 46.3466624 0.0694608
7.7 46.2896981 46.2205072 0.0691909
7.8 46.1433936 46.0745024 0.0688912
7.9 45.9774531 45.9088908 0.0685623
8.0 45.7921321 45.7239275 0.0682046
8.1 45.5876985 45.5198797 0.0678188
8.2 45.3644323 45.2970267 0.0674056
8.3 45.1226248 45.0556595 0.0669653
8.4 44.8625791 44.7960803 0.0664988
8.5 44.5846094 44.5186027 0.0660067
8.6 44.2890407 44.2235511 0.0654896
8.7 43.9762090 43.9112607 0.0649483
8.8 43.6464604 43.5820769 0.0643835
8.9 43.3001513 43.2363554 0.0637959
9.0 42.9376477 42.8744615 0.0631862
9.1 42.5593254 42.4967702 0.0625552
9.2 42.1655693 42.1036655 0.0619038
9.3 41.7567730 41.6955404 0.0612326
9.4 41.3333390 41.2727965 0.0605425
9.5 40.8956780 40.8358436 0.0598344
9.6 40.4442084 40.3850994 0.059109
9.7 39.9793565 39.9209892 0.0583673
9.8 39.5015556 39.4439456 0.05761
9.9 39.0112461 38.9544080 0.0568381
10.0 38.5088749 38.4528226 0.0560523
10.1 37.9948952 37.9396414 0.0552538
10.2 37.4697657 37.4153225 0.0544432
10.3 36.9339512 36.8803295 0.0536217
10.4 36.3879210 36.3351311 0.0527899
10.5 35.8321496 35.7802006 0.051949
10.6 35.2671157 35.2160160 0.0510997
10.7 34.6933021 34.6430590 0.0502431
10.8 34.1111951 34.0618151 0.04938
10.9 33.5212845 33.4727730 0.0485115
11.0 32.9240628 32.8764244 0.0476384
11.1 32.3200252 32.2732633 0.0467619
11.2 31.7096687 31.6637861 0.0458826
11.3 31.0934924 31.0484907 0.0450017
11.4 30.4719966 30.4278766 0.04412
11.5 29.8456827 29.8024440 0.0432387
11.6 29.2150525 29.1726941 0.0423584
11.7 28.5806081 28.5391279 0.0414802
11.8 27.9428517 27.9022466 0.0406051
11.9 27.3022847 27.2625507 0.039734
12.0 26.6594075 26.6205397 0.0388678
12.1 26.0147196 25.9767121 0.0380075
12.2 25.3687184 25.3315646 0.0371538
12.3 24.7218996 24.6855917 0.0363079
12.4 24.0747564 24.0392858 0.0354706
12.5 23.4277791 23.3931364 0.0346427
12.6 22.7814551 22.7476299 0.0338252
12.7 22.1362682 22.1032492 0.033019
12.8 21.4926983 21.4604735 0.0322248
12.9 20.8512212 20.8197776 0.0314436
13.0 20.2123082 20.1816319 0.0306763
13.1 19.5764255 19.5465020 0.0299235
13.2 18.9440344 18.9148482 0.0291862
13.3 18.3155903 18.2871253 0.028465
13.4 17.6915430 17.6637820 0.027761
13.5 17.0723359 17.0452613 0.0270746
13.6 16.4584061 16.4319993 0.0264068
13.7 15.8501837 15.8244253 0.0257584
13.8 15.2480916 15.2229618 0.0251298
13.9 14.6525455 14.6280236 0.0245219
14.0 14.0639532 14.0400178 0.0239354
14.1 13.4827146 13.4593436 0.023371
14.2 12.9092212 12.8863920 0.0228292
14.3 12.3438560 12.3215455 0.0223105
14.4 11.7869933 11.7651775 0.0218158
14.5 11.2389983 11.2176527 0.0213456
14.6 10.7002266 10.6793263 0.0209003
14.7 10.1710246 10.1505441 0.0204805
14.8 9.6517288 9.6316421 0.0200867
14.9 9.1426658 9.1229463 0.0197195
15.0 8.6441517 8.6247726 0.0193791
15.1 8.1564925 8.1374263 0.0190662
15.2 7.6799833 7.6612024 0.0187809
15.3 7.2149087 7.1963848 0.0185239
15.4 6.7615422 6.7432468 0.0182954
15.5 6.3201460 6.3020503 0.0180957
15.6 5.8909713 5.8730461 0.0179252
15.7 5.4742575 5.4564735 0.017784
15.8 5.0702327 5.0525602 0.0176725
15.9 4.6791132 4.6615223 0.0175909
16.0 4.3011035 4.2835642 0.0175393
16.1 3.9363959 3.9188780 0.0175179
16.2 3.5851711 3.5676441 0.017527
16.3 3.2475972 3.2300308 0.0175664
16.4 2.9238304 2.9061940 0.0176364
16.5 2.6140145 2.5962776 0.0177369
16.6 2.3182809 2.3004129 0.017868
16.7 2.0367488 2.0187191 0.0180297
16.8 1.7695247 1.7513029 0.0182218
16.9 1.5167029 1.4982583 0.0184446
17.0 1.2783650 1.2596674 0.0186976
17.1 1.0545802 1.0355993 0.0189809
17.2 0.8454052 0.8261110 0.0192942
17.3 0.6508842 0.6312468 0.0196374
17.4 0.4710490 0.4510387 0.0200103
17.5 0.3059188 0.2855062 0.0204126
17.6 0.1555007 0.1346567 0.020844
17.7 0.0197892 -0.0015150 0.0213042
17.8 -0.1012333 -0.1230263 0.021793
17.9 -0.2075967 -0.2299067 0.02231
18.0 -0.2993432 -0.3221977 0.0228545
18.1 -0.3765266 -0.3999531 0.0234265
18.2 -0.4392130 -0.4632384 0.0240254
18.3 -0.4874803 -0.5121309 0.0246506
18.4 -0.5214179 -0.5467196 0.0253017
18.5 -0.5411270 -0.5671052 0.0259782
18.6 -0.5467201 -0.5733996 0.0266795
18.7 -0.5383211 -0.5657262 0.0274051
18.8 -0.5160652 -0.5442194 0.0281542
18.9 -0.4800982 -0.5090246 0.0289264
19.0 -0.4305770 -0.4602979 0.0297209
19.1 -0.3676691 -0.3982061 0.030537
19.2 -0.2915525 -0.3229265 0.031374
19.3 -0.2024152 -0.2346465 0.0322313
19.4 -0.1004557 -0.1335637 0.033108
19.5 0.0141180 -0.0198853 0.0340033
19.6 0.1410882 0.1061718 0.0349164
19.7 0.2802278 0.2443811 0.0358467
19.8 0.4313004 0.3945072 0.0367932
19.9 0.5940607 0.5563058 0.0377549
20.0 0.7682549 0.7295239 0.038731
20.1 0.9536206 0.9138998 0.0397208
20.2 1.1498871 1.1091640 0.0407231
20.3 1.3567761 1.3150390 0.0417371
20.4 1.5740013 1.5312395 0.0427618
20.5 1.8012693 1.7574731 0.0437962
20.6 2.0382795 1.9934401 0.0448394
20.7 2.2847244 2.2388341 0.0458903
20.8 2.5402900 2.4933421 0.0469479
20.9 2.8046563 2.7566451 0.0480112
21.0 3.0774971 3.0284179 0.0490792
21.1 3.3584805 3.3083299 0.0501506
21.2 3.6472697 3.5960451 0.0512246
21.3 3.9435223 3.8912224 0.0522999
21.4 4.2468918 4.1935162 0.0533756
21.5 4.5570268 4.5025763 0.0544505
21.6 4.8735721 4.8180486 0.0555235
21.7 5.1961686 5.1395752 0.0565934
21.8 5.5244539 5.4667946 0.0576593
21.9 5.8580624 5.7993426 0.0587198
22.0 6.1966257 6.1368518 0.0597739
22.1 6.5397729 6.4789525 0.0608204
22.2 6.8871312 6.8252729 0.0618583
22.3 7.2383257 7.1754394 0.0628863
22.4 7.5929802 7.5290769 0.0639033
22.5 7.9507172 7.8858090 0.0649082
22.6 8.3111585 8.2452588 0.0658997
22.7 8.6739254 8.6070485 0.0668769
22.8 9.0386389 8.9708004 0.0678385
22.9 9.4049203 9.3361370 0.0687833
23.0 9.7723913 9.7026811 0.0697102
23.1 10.1406745 10.0700562 0.0706183
23.2 10.5093934 10.4378873 0.0715061
23.3 10.8781732 10.8058005 0.0723727
23.4 11.2466407 11.1734237 0.073217
23.5 11.6144248 11.5403870 0.0740378
23.6 11.9811568 11.9063228 0.074834
23.7 12.3464708 12.2708662 0.0756046
23.8 12.7100036 12.6336552 0.0763484
23.9 13.0713957 12.9943312 0.0770645
24.0 13.4302908 13.3525391 0.0777517
24.1 13.7863368 13.7079278 0.078409
24.2 14.1391856 14.0601502 0.0790354
24.3 14.4884937 14.4088637 0.07963
24.4 14.8339222 14.7537306 0.0801916
24.5 15.1751374 15.0944180 0.0807194
24.6 15.5118106 15.4305984 0.0812122
24.7 15.8436190 15.7619496 0.0816694
24.8 16.1702454 16.0881556 0.0820898
24.9 16.4913786 16.4089060 0.0824726
25.0 16.8067141 16.7238972 0.0828169
25.1 17.1159534 17.0328315 0.0831219
25.2 17.4188053 17.3354186 0.0833867
25.3 17.7149853 17.6313749 0.0836104
25.4 18.0042163 17.9204239 0.0837924
25.5 18.2862285 18.2022967 0.0839318
25.6 18.5607600 18.4767320 0.084028
25.7 18.8275565 18.7434764 0.0840801
25.8 19.0863719 19.0022844 0.0840875
25.9 19.3369683 19.2529188 0.0840495
26.0 19.5791163 19.4951508 0.0839655
26.1 19.8125949 19.7287600 0.0838349
26.2 20.0371922 19.9535351 0.0836571
26.3 20.2527047 20.1692732 0.0834315
26.4 20.4589384 20.3757807 0.0831577
26.5 20.6557083 20.5728732 0.0828351
26.6 20.8428386 20.7603754 0.0824632
26.7 21.0201632 20.9381215 0.0820417
26.8 21.1875253 21.1059552 0.0815701
26.9 21.3447780 21.2637299 0.0810481
27.0 21.4917838 21.4113086 0.0804752
27.1 21.6284155 21.5485641 0.0798514
27.2 21.7545554 21.6753792 0.0791762
27.3 21.8700959 21.7916465 0.0784494
27.4 21.9749396 21.8972687 0.0776709
27.5 22.0689990 21.9921586 0.0768404
27.6 22.1521968 22.0762390 0.0759578
27.7 22.2244659 22.1494429 0.075023
27.8 22.2857493 22.2117134 0.0740359
27.9 22.3360003 22.2630037 0.0729966
28.0 22.3751824 22.3032774 0.071905
28.1 22.4032693 22.3325082 0.0707611
28.2 22.4202448 22.3506798 0.069565
28.3 22.4261031 22.3577862 0.0683169
28.4 22.4208484 22.3538315 0.0670169
28.5 22.4044949 22.3388299 0.065665
28.6 22.3770672 22.3128055 0.0642617
28.7 22.3385996 22.2757926 0.062807
28.8 22.2891365 22.2278351 0.0613014
28.9 22.2287322 22.1689872 0.059745
29.0 22.1574507 22.0993124 0.0581383
29.1 22.0753657 22.0188841 0.0564816
29.2 21.9825607 21.9277853 0.0547754
29.3 21.8791286 21.8261085 0.0530201
29.4 21.7651716 21.7139554 0.0512162
29.5 21.6408014 21.5914370 0.0493644
29.6 21.5061385 21.4586736 0.0474649
29.7 21.3613128 21.3157943 0.0455185
29.8 21.2064629 21.1629370 0.0435259
29.9 21.0417360 21.0002485 0.0414875
30.0 20.8672881 20.8278839 0.0394042
30.1 20.6832835 20.6460067 0.0372768
30.2 20.4898946 20.4547889 0.0351057
30.3 20.2873021 20.2544100 0.0328921
30.4 20.0756943 20.0450578 0.0306365
30.5 19.8552673 19.8269275 0.0283398
30.6 19.6262248 19.6002217 0.0260031
30.7 19.3887776 19.3651506 0.023627
30.8 19.1431435 19.1219309 0.0212126
30.9 18.8895474 18.8707866 0.0187608
31.0 18.6282207 18.6119481 0.0162726
31.1 18.3594010 18.3456520 0.013749
31.2 18.0833325 18.0721414 0.0111911
31.3 17.8002651 17.7916652 0.0085999
31.4 17.5104542 17.5044777 0.0059765
31.5 17.2141610 17.2108391 0.0033219
31.6 16.9116518 16.9110143 0.0006375
31.7 16.6031978 16.6052736 -0.0020758
31.8 16.2890750 16.2938916 -0.0048166
31.9 15.9695636 15.9771475 -0.0075839
32.0 15.6449483 15.6553247 -0.0103764
32.1 15.3155175 15.3287103 -0.0131928
32.2 14.9815634 14.9975953 -0.0160319
32.3 14.6433814 14.6622739 -0.0188925
32.4 14.3012701 14.3230433 -0.0217732
32.5 13.9555310 13.9802037 -0.0246727
32.6 13.6064679 13.6340577 -0.0275898
32.7 13.2543873 13.2849102 -0.0305229
32.8 12.8995973 12.9330682 -0.0334709
32.9 12.5424079 12.5788402 -0.0364323
33.0 12.1831304 12.2225363 -0.0394059
33.1 11.8220776 11.8644676 -0.04239
33.2 11.4595626 11.5049462 -0.0453836
33.3 11.0958997 11.1442847 -0.048385
33.4 10.7314031 10.7827960 -0.0513929
33.5 10.3663871 10.4207929 -0.0544058
33.6 10.0011659 10.0585883 -0.0574224
33.7 9.6360530 9.6964942 -0.0604412
33.8 9.2713611 9.3348220 -0.0634609
33.9 8.9074020 8.9738819 -0.0664799
34.0 8.5444859 8.6139827 -0.0694968
34.1 8.1829214 8.2554316 -0.0725102
34.2 7.8230154 7.8985341 -0.0755187
34.3 7.4650724 7.5435932 -0.0785208
34.4 7.1093946 7.1909097 -0.0815151
34.5 6.7562813 6.8407814 -0.0845001
34.6 6.4060291 6.4935036 -0.0874745
34.7 6.0589310 6.1493679 -0.0904369
34.8 5.7152770 5.8086628 -0.0933858
34.9 5.3753530 5.4716728 -0.0963198
35.0 5.0394411 5.1386785 -0.0992374
35.1 4.7078190 4.8099566 -0.102138
35.2 4.3807602 4.4857788 -0.105019
35.3 4.0585334 4.1664126 -0.107879
35.4 3.7414022 3.8521204 -0.110718
35.5 3.4296254 3.5431594 -0.113534
35.6 3.1234561 3.2397817 -0.116326
35.7 2.8231422 2.9422335 -0.119091
35.8 2.5289253 2.6507555 -0.12183
35.9 2.2410416 2.3655823 -0.124541
36.0 1.9597208 2.0869425 -0.127222
36.1 1.6851861 1.8150582 -0.129872
36.2 1.4176544 1.5501449 -0.132491
36.3 1.1573359 1.2924116 -0.135076
36.4 0.9044336 1.0420602 -0.137627
36.5 0.6591436 0.7992857 -0.140142
36.6 0.4216549 0.5642759 -0.142621
36.7 0.1921488 0.3372111 -0.145062
36.8 -0.0292005 0.1182642 -0.147465
36.9 -0.2422270 -0.0923996 -0.149827
37.0 -0.4467720 -0.2946227 -0.152149
37.1 -0.6426851 -0.4882557 -0.154429
37.2 -0.8298236 -0.6731570 -0.156667
37.3 -1.0080533 -0.8491931 -0.15886
37.4 -1.1772479 -1.0162388 -0.161009
37.5 -1.3372898 -1.1741772 -0.163113
37.6 -1.4880696 -1.3228998 -0.16517
37.7 -1.6294864 -1.4623066 -0.16718
37.8 -1.7614481 -1.5923062 -0.169142
37.9 -1.8838709 -1.7128156 -0.171055
38.0 -1.9966800 -1.8237607 -0.172919
38.1 -2.0998093 -1.9250759 -0.174733
38.2 -2.1932014 -2.0167047 -0.176497
38.3 -2.2768077 -2.0985991 -0.178209
38.4 -2.3505886 -2.1707199 -0.179869
38.5 -2.4145133 -2.2330369 -0.181476
38.6 -2.4685597 -2.2855285 -0.183031
38.7 -2.5127148 -2.3281823 -0.184532
38.8 -2.5469745 -2.3609944 -0.18598
38.9 -2.5713433 -2.3839698 -0.187374
39.0 -2.5858347 -2.3971224 -0.188712
39.1 -2.5904709 -2.4004748 -0.189996
39.2 -2.5852831 -2.3940581 -0.191225
39.3 -2.5703109 -2.3779125 -0.192398
39.4 -2.5456028 -2.3520865 -0.193516
39.5 -2.5112157 -2.3166373 -0.194578
39.6 -2.4672152 -2.2716305 -0.195585
39.7 -2.4136752 -2.2171402 -0.196535
39.8 -2.3506782 -2.1532488 -0.197429
39.9 -2.2783147 -2.0800469 -0.198268
40.0 -2.1966836 -1.9976333 -0.19905
40.1 -2.1058917 -1.9061148 -0.199777
40.2 -2.0060540 -1.8056062 -0.200448
40.3 -1.8972931 -1.6962300 -0.201063
40.4 -1.7797394 -1.5781165 -0.201623
40.5 -1.6535311 -1.4514033 -0.202128
40.6 -1.5188134 -1.3162359 -0.202578
40.7 -1.3757394 -1.1727665 -0.202973
40.8 -1.2244687 -1.0211547 -0.203314
40.9 -1.0651685 -0.8615672 -0.203601
41.0 -0.8980124 -0.6941773 -0.203835
41.1 -0.7231809 -0.5191648 -0.204016
41.2 -0.5408609 -0.3367163 -0.204145
41.3 -0.3512456 -0.1470244 -0.204221
41.4 -0.1545344 0.0497121 -0.204246
41.5 0.0490675 0.2532884 -0.204221
41.6 0.2593489 0.4634943 -0.204145
41.7 0.4760933 0.6801139 -0.204021
41.8 0.6990788 0.9029258 -0.203847
41.9 0.9280783 1.1317038 -0.203625
42.0 1.1628599 1.3662168 -0.203357
42.1 1.4031869 1.6062289 -0.203042
42.2 1.6488181 1.8514998 -0.202682
42.3 1.8995083 2.1017850 -0.202277
42.4 2.1550079 2.3568360 -0.201828
42.5 2.4150637 2.6164005 -0.201337
42.6 2.6794190 2.8802226 -0.200804
42.7 2.9478136 3.1480434 -0.20023
42.8 3.2199843 3.4196005 -0.199616
42.9 3.4956651 3.6946291 -0.198964
43.0 3.7745873 3.9728616 -0.198274
43.1 4.0564800 4.2540279 -0.197548
43.2 4.3410699 4.5378563 -0.196786
43.3 4.6280822 4.8240728 -0.195991
43.4 4.9172401 5.1124019 -0.195162
43.5 5.2082658 5.4025671 -0.194301
43.6 5.5008801 5.6942903 -0.19341
43.7 5.7948031 5.9872929 -0.19249
43.8 6.0897542 6.2812956 -0.191541
43.9 6.3854526 6.5760187 -0.190566
44.0 6.6816171 6.8711826 -0.189565
44.1 6.9779670 7.1665076 -0.188541
44.2 7.2742216 7.4617147 -0.187493
44.3 7.5701013 7.7565253 -0.186424
44.4 7.8653269 8.0506619 -0.185335
44.5 8.1596208 8.3438479 -0.184227
44.6 8.4527065 8.6358084 -0.183102
44.7 8.7443092 8.9262701 -0.181961
44.8 9.0341560 9.2149613 -0.180805
44.9 9.3219761 9.5016127 -0.179637
45.0 9.6075011 9.7859573 -0.178456
45.1 9.8904650 10.0677306 -0.177266
45.2 10.1706050 10.3466711 -0.176066
45.3 10.4476610 10.6225202 -0.174859
45.4 10.7213762 10.8950227 -0.173647
45.5 10.9914976 11.1639267 -0.172429
45.6 11.2577756 11.4289844 -0.171209
45.7 11.5199648 11.6899515 -0.169987
45.8 11.7778236 11.9465882 -0.168765
45.9 12.0311152 12.1986588 -0.167544
46.0 12.2796071 12.4459324 -0.166325
46.1 12.5230716 12.6881827 -0.165111
46.2 12.7612859 12.9251884 -0.163902
46.3 12.9940325 13.1567333 -0.162701
46.4 13.2210992 13.3826065 -0.161507
46.5 13.4422792 13.6026029 -0.160324
46.6 13.6573716 13.8165227 -0.159151
46.7 13.8661811 14.0241721 -0.157991
46.8 14.0685187 14.2253633 -0.156845
46.9 14.2642013 14.4199148 -0.155714
47.0 14.4530524 14.6076513 -0.154599
47.1 14.6349019 14.7884039 -0.153502
47.2 14.8095863 14.9620105 -0.152424
47.3 14.9769487 15.1283156 -0.151367
47.4 15.1368395 15.2871706 -0.150331
47.5 15.2891158 15.4384339 -0.149318
47.6 15.4336418 15.5819710 -0.148329
47.7 15.5702891 15.7176547 -0.147366
47.8 15.6989367 15.8453650 -0.146428
47.9 15.8194707 15.9649894 -0.145519
48.0 15.9317851 16.0764228 -0.144638
48.1 16.0357814 16.1795677 -0.143786
48.2 16.1313686 16.2743345 -0.142966
48.3 16.2184637 16.3606410 -0.142177
48.4 16.2969913 16.4384128 -0.141421
48.5 16.3668841 16.5075837 -0.1407
48.6 16.4280826 16.5680949 -0.140012
48.7 16.4805351 16.6198959 -0.139361
48.8 16.5241982 16.6629440 -0.138746
48.9 16.5590362 16.6972045 -0.138168
49.0 16.5850218 16.7226506 -0.137629
49.1 16.6021354 16.7392638 -0.137128
49.2 16.6103655 16.7470333 -0.136668
49.3 16.6097089 16.7459564 -0.136247
49.4 16.6001703 16.7360385 -0.135868
49.5 16.5817621 16.7172929 -0.135531
49.6 16.5545053 16.6897410 -0.135236
49.7 16.5184284 16.6534118 -0.134983
49.8 16.4735680 16.6083424 -0.134774
49.9 16.4199685 16.5545779 -0.134609
50.0 16.3576822 16.4921709 -0.134489
50.1 16.2867692 16.4211818 -0.134413
50.2 16.2072972 16.3416788 -0.134382
50.3 16.1193416 16.2537376 -0.134396
50.4 16.0229854 16.1574413 -0.134456
50.5 15.9183188 16.0528806 -0.134562
50.6 15.8054396 15.9401534 -0.134714
50.7 15.6844530 15.8193649 -0.134912
50.8 15.5554710 15.6906273 -0.135156
50.9 15.4186129 15.5540601 -0.135447
51.0 15.2740050 15.4097894 -0.135784
51.1 15.1217801 15.2579482 -0.136168
51.2 14.9620781 15.0986760 -0.136598
51.3 14.7950450 14.9321190 -0.137074
51.4 14.6208335 14.7584298 -0.137596
51.5 14.4396025 14.5777668 -0.138164
51.6 14.2515171 14.3902950 -0.138778
51.7 14.0567480 14.1961850 -0.139437
51.8 13.8554722 13.9956132 -0.140141
51.9 13.6478718 13.7887615 -0.14089
52.0 13.4341347 13.5758174 -0.141683
52.1 13.2144540 13.3569735 -0.14252
52.2 12.9890278 13.1324274 -0.1434
52.3 12.7580592 12.9023816 -0.144322
52.4 12.5217559 12.6670434 -0.145288
52.5 12.2803303 12.4266245 -0.146294
52.6 12.0339989 12.1813407 -0.147342
52.7 11.7829825 11.9314123 -0.14843
52.8 11.5275057 11.6770630 -0.149557
52.9 11.2677970 11.4185204 -0.150723
53.0 11.0040882 11.1560158 -0.151928
53.1 10.7366145 10.8897833 -0.153169
53.2 10.4656140 10.6200603 -0.154446
53.3 10.1913280 10.3470870 -0.155759
53.4 9.9140001 10.0711062 -0.157106
53.5 9.6338764 9.7923630 -0.158487
53.6 9.3512053 9.5111047 -0.159899
53.7 9.0662371 9.2275805 -0.161343
53.8 8.7792238 8.9420414 -0.162818
53.9 8.4904189 8.6547397 -0.164321
54.0 8.2000772 8.3659292 -0.165852
54.1 7.9084546 8.0758644 -0.16741
54.2 7.6158078 7.7848009 -0.168993
54.3 7.3223940 7.4929946 -0.170601
54.4 7.0284707 7.2007018 -0.172231
54.5 6.7342958 6.9081790 -0.173883
54.6 6.4401269 6.6156825 -0.175556
54.7 6.1462211 6.3234682 -0.177247
54.8 5.8528352 6.0317913 -0.178956
54.9 5.5602252 5.7409065 -0.180681
55.0 5.2686458 5.4510671 -0.182421
55.1 4.9783507 5.1625253 -0.184175
