#Theta He10 He15 diff
0.0 0.0000000 0.0000000 0
0.1 0.2619109 0.2666985 -0.0047876
0.2 0.5235494 0.5331217 -0.0095723
0.3 0.7846434 0.7989946 -0.0143512
0.4 1.0449219 1.0640432 -0.0191213
0.5 1.3041147 1.3279945 -0.0238798
0.6 1.5619537 1.5905775 -0.0286238
0.7 1.8181725 1.8515228 -0.0333503
0.8 2.0725073 2.1105638 -0.0380565
0.9 2.3246971 2.3674367 -0.0427396
1.0 2.5744843 2.6218810 -0.0473967
1.1 2.8216145 2.8736396 -0.0520251
1.2 3.0658378 3.1224597 -0.0566219
1.3 3.3069084 3.3680928 -0.0611844
1.4 3.5445853 3.6102951 -0.0657098
1.5 3.7786326 3.8488281 -0.0701955
1.6 4.0088198 4.0834586 -0.0746388
1.7 4.2349224 4.3139594 -0.079037
1.8 4.4567217 4.5401095 -0.0833878
1.9 4.6740058 4.7616941 -0.0876883
2.0 4.8865693 4.9785055 -0.0919362
2.1 5.0942141 5.1903430 -0.0961289
2.2 5.2967491 5.3970133 -0.100264
2.3 5.4939913 5.5983308 -0.10434
2.4 5.6857651 5.7941177 -0.108353
2.5 5.8719034 5.9842048 -0.112301
2.6 6.0522473 6.1684308 -0.116183
2.7 6.2266466 6.3466433 -0.119997
2.8 6.3949599 6.5186990 -0.123739
2.9 6.5570547 6.6844633 -0.127409
3.0 6.7128078 6.8438109 -0.131003
3.1 6.8621053 6.9966262 -0.134521
3.2 7.0048428 7.1428029 -0.13796
3.3 7.1409255 7.2822445 -0.141319
3.4 7.2702684 7.4148642 -0.144596
3.5 7.3927964 7.5405853 -0.147789
3.6 7.5084442 7.6593410 -0.150897
3.7 7.6171567 7.7710746 -0.153918
3.8 7.7188886 7.8757395 -0.156851
3.9 7.8136050 7.9732993 -0.159694
4.0 7.9012808 8.0637279 -0.162447
4.1 7.9819013 8.1470093 -0.165108
4.2 8.0554617 8.2231376 -0.167676
4.3 8.1219674 8.2921171 -0.17015
4.4 8.1814338 8.3539624 -0.172529
4.5 8.2338862 8.4086979 -0.174812
4.6 8.2793600 8.4563582 -0.176998
4.7 8.3179002 8.4969875 -0.179087
4.8 8.3495615 8.5306401 -0.181079
4.9 8.3744082 8.5573797 -0.182972
5.0 8.3925141 8.5772796 -0.184766
5.1 8.4039622 8.5904225 -0.18646
5.2 8.4088447 8.5969002 -0.188056
5.3 8.4072624 8.5968136 -0.189551
5.4 8.3993253 8.5902723 -0.190947
5.5 8.3851514 8.5773944 -0.192243
5.6 8.3648674 8.5583067 -0.193439
5.7 8.3386078 8.5331438 -0.194536
5.8 8.3065150 8.5020483 -0.195533
5.9 8.2687388 8.4651704 -0.196432
6.0 8.2254364 8.4226677 -0.197231
6.1 8.1767718 8.3747047 -0.197933
6.2 8.1229159 8.3214527 -0.198537
6.3 8.0640457 8.2630896 -0.199044
6.4 8.0003445 8.1997993 -0.199455
6.5 7.9320011 8.1317715 -0.19977
6.6 7.8592099 8.0592013 -0.199991
6.7 7.7821701 7.9822891 -0.200119
6.8 7.7010859 7.9012400 -0.200154
6.9 7.6161655 7.8162635 -0.200098
7.0 7.5276215 7.7275732 -0.199952
7.1 7.4356697 7.6353863 -0.199717
7.2 7.3405295 7.5399234 -0.199394
7.3 7.2424229 7.4414082 -0.198985
7.4 7.1415746 7.3400666 -0.198492
7.5 7.0382113 7.2361270 -0.197916
7.6 6.9325614 7.1298196 -0.197258
7.7 6.8248549 7.0213757 -0.196521
7.8 6.7153224 6.9110280 -0.195706
7.9 6.6041954 6.7990095 -0.194814
8.0 6.4917054 6.6855539 -0.193849
8.1 6.3780837 6.5708943 -0.192811
8.2 6.2635613 6.4552635 -0.191702
8.3 6.1483678 6.3388935 -0.190526
8.4 6.0327319 6.2220149 -0.189283
8.5 5.9168805 6.1048566 -0.187976
8.6 5.8010382 5.9876456 -0.186607
8.7 5.6854274 5.8706065 -0.185179
8.8 5.5702677 5.7539611 -0.183693
8.9 5.4557755 5.6379282 -0.182153
9.0 5.3421638 5.5227230 -0.180559
9.1 5.2296417 5.4085571 -0.178915
9.2 5.1184142 5.2956380 -0.177224
9.3 5.0086819 5.1841685 -0.175487
9.4 4.9006405 5.0743470 -0.173707
9.5 4.7944807 4.9663666 -0.171886
9.6 4.6903879 4.8604152 -0.170027
9.7 4.5885417 4.7566749 -0.168133
9.8 4.4891160 4.6553222 -0.166206
9.9 4.3922783 4.5565272 -0.164249
10.0 4.2981898 4.4604537 -0.162264
10.1 4.2070051 4.3672587 -0.160254
10.2 4.1188718 4.2770925 -0.158221
10.3 4.0339305 4.1900982 -0.156168
10.4 3.9523144 4.1064118 -0.154097
10.5 3.8741495 4.0261617 -0.152012
10.6 3.7995539 3.9494686 -0.149915
10.7 3.7286380 3.8764455 -0.147807
10.8 3.6615045 3.8071975 -0.145693
10.9 3.5982476 3.7418215 -0.143574
11.0 3.5389537 3.6804064 -0.141453
11.1 3.4837008 3.6230327 -0.139332
11.2 3.4325587 3.5697725 -0.137214
11.3 3.3855886 3.5206897 -0.135101
11.4 3.3428435 3.4758394 -0.132996
11.5 3.3043675 3.4352684 -0.130901
11.6 3.2701966 3.3990150 -0.128818
11.7 3.2403582 3.3671086 -0.12675
11.8 3.2148709 3.3395705 -0.1247
11.9 3.1937453 3.3164131 -0.122668
12.0 3.1769831 3.2976406 -0.120657
12.1 3.1645778 3.2832486 -0.118671
12.2 3.1565147 3.2732243 -0.11671
12.3 3.1527706 3.2675468 -0.114776
12.4 3.1533144 3.2661867 -0.112872
12.5 3.1581069 3.2691068 -0.111
12.6 3.1671008 3.2762618 -0.109161
12.7 3.1802413 3.2875986 -0.107357
12.8 3.1974658 3.3030563 -0.105591
12.9 3.2187043 3.3225667 -0.103862
13.0 3.2438796 3.3460542 -0.102175
13.1 3.2729073 3.3734358 -0.100529
13.2 3.3056962 3.4046218 -0.0989256
13.3 3.3421483 3.4395158 -0.0973675
13.4 3.3821593 3.4780146 -0.0958553
13.5 3.4256185 3.5200088 -0.0943903
13.6 3.4724095 3.5653832 -0.0929737
13.7 3.5224098 3.6140166 -0.0916068
13.8 3.5754918 3.6657820 -0.0902902
13.9 3.6315225 3.7205477 -0.0890252
14.0 3.6903640 3.7781765 -0.0878125
14.1 3.7518738 3.8385268 -0.086653
14.2 3.8159051 3.9014524 -0.0855473
14.3 3.8823071 3.9668031 -0.084496
14.4 3.9509251 4.0344249 -0.0834998
14.5 4.0216012 4.1041602 -0.082559
14.6 4.0941742 4.1758482 -0.081674
14.7 4.1684803 4.2493255 -0.0808452
14.8 4.2443531 4.3244257 -0.0800726
14.9 4.3216241 4.4009806 -0.0793565
15.0 4.4001231 4.4788200 -0.0786969
15.1 4.4796782 4.5577720 -0.0780938
15.2 4.5601167 4.6376636 -0.0775469
15.3 4.6412647 4.7183208 -0.0770561
15.4 4.7229480 4.7995693 -0.0766213
15.5 4.8049924 4.8812342 -0.0762418
15.6 4.8872237 4.9631410 -0.0759173
15.7 4.9694682 5.0451155 -0.0756473
15.8 5.0515531 5.1269843 -0.0754312
15.9 5.1333067 5.2085750 -0.0752683
16.0 5.2145589 5.2897167 -0.0751578
16.1 5.2951413 5.3702402 -0.0750989
16.2 5.3748876 5.4499782 -0.0750906
16.3 5.4536338 5.5287659 -0.0751321
16.4 5.5312189 5.6064411 -0.0752222
16.5 5.6074845 5.6828444 -0.0753599
16.6 5.6822759 5.7578198 -0.0755439
16.7 5.7554416 5.8312147 -0.0757731
16.8 5.8268342 5.9028803 -0.0760461
16.9 5.8963102 5.9726717 -0.0763615
17.0 5.9637305 6.0404484 -0.0767179
17.1 6.0289607 6.1060745 -0.0771138
17.2 6.0918710 6.1694188 -0.0775478
17.3 6.1523369 6.2303550 -0.0780181
17.4 6.2102389 6.2887621 -0.0785232
17.5 6.2654633 6.3445246 -0.0790613
17.6 6.3179016 6.3975325 -0.0796309
17.7 6.3674516 6.4476815 -0.0802299
17.8 6.4140168 6.4948736 -0.0808568
17.9 6.4575069 6.5390166 -0.0815097
18.0 6.4978382 6.5800246 -0.0821864
18.1 6.5349329 6.6178184 -0.0828855
18.2 6.5687203 6.6523251 -0.0836048
18.3 6.5991361 6.6834783 -0.0843422
18.4 6.6261226 6.7112187 -0.0850961
18.5 6.6496294 6.7354935 -0.0858641
18.6 6.6696126 6.7562571 -0.0866445
18.7 6.6860355 6.7734706 -0.0874351
18.8 6.6988682 6.7871021 -0.0882339
18.9 6.7080880 6.7971269 -0.0890389
19.0 6.7136792 6.8035273 -0.0898481
19.1 6.7156332 6.8062925 -0.0906593
19.2 6.7139483 6.8054190 -0.0914707
19.3 6.7086299 6.8009100 -0.0922801
19.4 6.6996905 6.7927758 -0.0930853
19.5 6.6871492 6.7810339 -0.0938847
19.6 6.6710322 6.7657083 -0.0946761
19.7 6.6513725 6.7468300 -0.0954575
19.8 6.6282097 6.7244366 -0.0962269
19.9 6.6015899 6.6985725 -0.0969826
20.0 6.5715660 6.6692884 -0.0977224
20.1 6.5381968 6.6366415 -0.0984447
20.2 6.5015477 6.6006951 -0.0991474
20.3 6.4616900 6.5615189 -0.0998289
20.4 6.4187009 6.5191881 -0.100487
20.5 6.3726633 6.4737842 -0.101121
20.6 6.3236658 6.4253939 -0.101728
20.7 6.2718022 6.3741094 -0.102307
20.8 6.2171716 6.3200282 -0.102857
20.9 6.1598779 6.2632527 -0.103375
21.0 6.1000300 6.2038903 -0.10386
21.1 6.0377410 6.1420527 -0.104312
21.2 5.9731285 6.0778561 -0.104728
21.3 5.9063141 6.0114207 -0.105107
21.4 5.8374231 5.9428708 -0.105448
21.5 5.7665845 5.8723339 -0.105749
21.6 5.6939304 5.7999412 -0.106011
21.7 5.6195961 5.7258269 -0.106231
21.8 5.5437195 5.6501279 -0.106408
21.9 5.4664410 5.5729837 -0.106543
22.0 5.3879033 5.4945360 -0.106633
22.1 5.3082509 5.4149287 -0.106678
22.2 5.2276299 5.3343072 -0.106677
22.3 5.1461879 5.2528185 -0.106631
22.4 5.0640735 5.1706104 -0.106537
22.5 4.9814359 5.0878319 -0.106396
22.6 4.8984249 5.0046323 -0.106207
22.7 4.8151907 4.9211615 -0.105971
22.8 4.7318831 4.8375690 -0.105686
22.9 4.6486515 4.7540041 -0.105353
23.0 4.5656450 4.6706158 -0.104971
23.1 4.4830113 4.5875517 -0.10454
23.2 4.4008972 4.5049588 -0.104062
23.3 4.3194478 4.4229822 -0.103534
23.4 4.2388064 4.3417657 -0.102959
23.5 4.1591144 4.2614507 -0.102336
23.6 4.0805108 4.1821766 -0.101666
23.7 4.0031320 4.1040804 -0.100948
23.8 3.9271116 4.0272961 -0.100185
23.9 3.8525800 3.9519548 -0.0993748
24.0 3.7796645 3.8781845 -0.09852
24.1 3.7084887 3.8061094 -0.0976207
24.2 3.6391725 3.7358502 -0.0966777
24.3 3.5718316 3.6675237 -0.0956921
24.4 3.5065778 3.6012425 -0.0946647
24.5 3.4435182 3.5371147 -0.0935965
24.6 3.3827555 3.4752442 -0.0924887
24.7 3.3243876 3.4157299 -0.0913423
24.8 3.2685073 3.3586658 -0.0901585
24.9 3.2152024 3.3041411 -0.0889387
25.0 3.1645553 3.2522394 -0.0876841
25.1 3.1166432 3.2030393 -0.0863961
25.2 3.0715375 3.1566136 -0.0850761
25.3 3.0293041 3.1130298 -0.0837257
25.4 2.9900031 3.0723494 -0.0823463
25.5 2.9536886 3.0346280 -0.0809394
25.6 2.9204089 2.9999157 -0.0795068
25.7 2.8902061 2.9682561 -0.07805
25.8 2.8631164 2.9396871 -0.0765707
25.9 2.8391696 2.9142402 -0.0750706
26.0 2.8183895 2.8919410 -0.0735515
26.1 2.8007935 2.8728087 -0.0720152
26.2 2.7863931 2.8568564 -0.0704633
26.3 2.7751930 2.8440909 -0.0688979
26.4 2.7671923 2.8345129 -0.0673206
26.5 2.7623834 2.8281168 -0.0657334
26.6 2.7607527 2.8248908 -0.0641381
26.7 2.7622805 2.8248171 -0.0625366
26.8 2.7669409 2.8278718 -0.0609309
26.9 2.7747022 2.8340248 -0.0593226
27.0 2.7855265 2.8432404 -0.0577139
27.1 2.7993702 2.8554767 -0.0561065
27.2 2.8161840 2.8706863 -0.0545023
27.3 2.8359128 2.8888161 -0.0529033
27.4 2.8584962 2.9098073 -0.0513111
27.5 2.8838681 2.9335959 -0.0497278
27.6 2.9119575 2.9601126 -0.0481551
27.7 2.9426881 2.9892830 -0.0465949
27.8 2.9759788 3.0210276 -0.0450488
27.9 3.0117437 3.0552624 -0.0435187
28.0 3.0498921 3.0918985 -0.0420064
28.1 3.0903293 3.1308427 -0.0405134
28.2 3.1329561 3.1719975 -0.0390414
28.3 3.1776694 3.2152616 -0.0375922
28.4 3.2243624 3.2605296 -0.0361672
28.5 3.2729246 3.3076926 -0.034768
28.6 3.3232422 3.3566382 -0.033396
28.7 3.3751983 3.4072511 -0.0320528
28.8 3.4286731 3.4594127 -0.0307396
28.9 3.4835441 3.5130020 -0.0294579
29.0 3.5396865 3.5678954 -0.0282089
29.1 3.5969732 3.6239671 -0.0269939
29.2 3.6552754 3.6810894 -0.025814
29.3 3.7144624 3.7391328 -0.0246704
29.4 3.7744023 3.7979663 -0.023564
29.5 3.8349620 3.8574579 -0.0224959
29.6 3.8960075 3.9174745 -0.021467
29.7 3.9574043 3.9778822 -0.0204779
29.8 4.0190172 4.0385471 -0.0195299
29.9 4.0807114 4.0993346 -0.0186232
30.0 4.1423519 4.1601106 -0.0177587
30.1 4.2038043 4.2207412 -0.0169369
30.2 4.2649348 4.2810930 -0.0161582
30.3 4.3256106 4.3410338 -0.0154232
30.4 4.3857000 4.4004322 -0.0147322
30.5 4.4450729 4.4591583 -0.0140854
30.6 4.5036009 4.5170838 -0.0134829
30.7 4.5611573 4.5740824 -0.0129251
30.8 4.6176179 4.6300297 -0.0124118
30.9 4.6728606 4.6848037 -0.0119431
31.0 4.7267663 4.7382850 -0.0115187
31.1 4.7792184 4.7903572 -0.0111388
31.2 4.8301038 4.8409064 -0.0108026
31.3 4.8793123 4.8898226 -0.0105103
31.4 4.9267374 4.9369986 -0.0102612
31.5 4.9722764 4.9823312 -0.0100548
31.6 5.0158303 5.0257210 -0.0098907
31.7 5.0573043 5.0670725 -0.0097682
31.8 5.0966078 5.1062944 -0.0096866
31.9 5.1336546 5.1432998 -0.0096452
32.0 5.1683633 5.1780064 -0.0096431
32.1 5.2006568 5.2103363 -0.0096795
32.2 5.2304632 5.2402166 -0.0097534
32.3 5.2577156 5.2675792 -0.0098636
32.4 5.2823519 5.2923612 -0.0100093
32.5 5.3043156 5.3145048 -0.0101892
32.6 5.3235552 5.3339574 -0.0104022
32.7 5.3400247 5.3506718 -0.0106471
32.8 5.3536838 5.3646062 -0.0109224
32.9 5.3644974 5.3757243 -0.0112269
33.0 5.3724362 5.3839953 -0.0115591
33.1 5.3774766 5.3893943 -0.0119177
33.2 5.3796005 5.3919016 -0.0123011
33.3 5.3787956 5.3915034 -0.0127078
33.4 5.3750554 5.3881917 -0.0131363
33.5 5.3683790 5.3819638 -0.0135848
33.6 5.3587713 5.3728232 -0.0140519
33.7 5.3462427 5.3607786 -0.0145359
33.8 5.3308095 5.3458445 -0.015035
33.9 5.3124934 5.3280411 -0.0155477
34.0 5.2913219 5.3073940 -0.0160721
34.1 5.2673277 5.2839342 -0.0166065
34.2 5.2405492 5.2576983 -0.0171491
34.3 5.2110300 5.2287282 -0.0176982
34.4 5.1788188 5.1970709 -0.0182521
34.5 5.1439698 5.1627785 -0.0188087
34.6 5.1065418 5.1259085 -0.0193667
34.7 5.0665989 5.0865228 -0.0199239
34.8 5.0242096 5.0446883 -0.0204787
34.9 4.9794473 5.0004766 -0.0210293
35.0 4.9323897 4.9539637 -0.021574
35.1 4.8831188 4.9052299 -0.0221111
35.2 4.8317210 4.8543596 -0.0226386
35.3 4.7782863 4.8014414 -0.0231551
35.4 4.7229088 4.7465676 -0.0236588
35.5 4.6656860 4.6898341 -0.0241481
35.6 4.6067190 4.6313402 -0.0246212
35.7 4.5461118 4.5711885 -0.0250767
35.8 4.4839716 4.5094846 -0.025513
35.9 4.4204085 4.4463369 -0.0259284
36.0 4.3555349 4.3818566 -0.0263217
36.1 4.2894658 4.3161570 -0.0266912
36.2 4.2223180 4.2493536 -0.0270356
36.3 4.1542104 4.1815641 -0.0273537
36.4 4.0852636 4.1129075 -0.0276439
36.5 4.0155995 4.0435047 -0.0279052
36.6 3.9453413 3.9734775 -0.0281362
36.7 3.8746128 3.9029489 -0.0283361
36.8 3.8035390 3.8320424 -0.0285034
36.9 3.7322450 3.7608823 -0.0286373
37.0 3.6608562 3.6895931 -0.0287369
37.1 3.5894979 3.6182992 -0.0288013
37.2 3.5182954 3.5471248 -0.0288294
37.3 3.4473732 3.4761940 -0.0288208
37.4 3.3768551 3.4056296 -0.0287745
37.5 3.3068640 3.3355541 -0.0286901
37.6 3.2375214 3.2660884 -0.028567
37.7 3.1689477 3.1973523 -0.0284046
37.8 3.1012611 3.1294637 -0.0282026
37.9 3.0345783 3.0625389 -0.0279606
38.0 2.9690136 2.9966920 -0.0276784
38.1 2.9046792 2.9320350 -0.0273558
38.2 2.8416844 2.8686770 -0.0269926
38.3 2.7801361 2.8067249 -0.0265888
38.4 2.7201379 2.7462823 -0.0261444
38.5 2.6617904 2.6874500 -0.0256596
38.6 2.6051908 2.6303253 -0.0251345
38.7 2.5504328 2.5750021 -0.0245693
38.8 2.4976063 2.5215706 -0.0239643
38.9 2.4467973 2.4701174 -0.0233201
39.0 2.3980878 2.4207250 -0.0226372
39.1 2.3515557 2.3734715 -0.0219158
39.2 2.3072745 2.3284312 -0.0211567
39.3 2.2653130 2.2856737 -0.0203607
39.4 2.2257358 2.2452642 -0.0195284
39.5 2.1886025 2.2072631 -0.0186606
39.6 2.1539680 2.1717262 -0.0177582
39.7 2.1218822 2.1387044 -0.0168222
39.8 2.0923899 2.1082435 -0.0158536
39.9 2.0655312 2.0803846 -0.0148534
40.0 2.0413405 2.0551633 -0.0138228
40.1 2.0198475 2.0326103 -0.0127628
40.2 2.0010762 2.0127510 -0.0116748
40.3 1.9850456 1.9956057 -0.0105601
40.4 1.9717693 1.9811893 -0.00942
40.5 1.9612555 1.9695112 -0.0082557
40.6 1.9535069 1.9605758 -0.0070689
40.7 1.9485213 1.9543822 -0.0058609
40.8 1.9462906 1.9509239 -0.0046333
40.9 1.9468019 1.9501894 -0.0033875
41.0 1.9500366 1.9521619 -0.0021253
41.1 1.9559712 1.9568192 -0.000848
41.2 1.9645768 1.9641343 0.0004425
41.3 1.9758194 1.9740747 0.0017447
41.4 1.9896600 1.9866033 0.0030567
41.5 2.0060548 2.0016777 0.0043771
41.6 2.0249548 2.0192509 0.0057039
41.7 2.0463066 2.0392710 0.0070356
41.8 2.0700518 2.0616815 0.0083703
41.9 2.0961277 2.0864214 0.0097063
42.0 2.1244671 2.1134254 0.0110417
42.1 2.1549987 2.1426236 0.0123751
42.2 2.1876467 2.1739423 0.0137044
42.3 2.2223317 2.2073037 0.015028
42.4 2.2589704 2.2426262 0.0163442
42.5 2.2974757 2.2798245 0.0176512
42.6 2.3377572 2.3188100 0.0189472
42.7 2.3797212 2.3594905 0.0202307
42.8 2.4232708 2.4017709 0.0214999
42.9 2.4683062 2.4455531 0.0227531
43.0 2.5147250 2.4907363 0.0239887
43.1 2.5624222 2.5372169 0.0252053
43.2 2.6112905 2.5848895 0.026401
43.3 2.6612206 2.6336460 0.0275746
43.4 2.7121012 2.6833768 0.0287244
43.5 2.7638193 2.7339703 0.029849
43.6 2.8162607 2.7853137 0.030947
43.7 2.8693097 2.8372927 0.032017
43.8 2.9228498 2.8897921 0.0330577
43.9 2.9767637 2.9426959 0.0340678
44.0 3.0309335 2.9958874 0.0350461
44.1 3.0852411 3.0492495 0.0359916
44.2 3.1395683 3.1026653 0.036903
44.3 3.1937969 3.1560176 0.0377793
44.4 3.2478093 3.2091898 0.0386195
44.5 3.3014884 3.2620656 0.0394228
44.6 3.3547179 3.3145297 0.0401882
44.7 3.4073826 3.3664676 0.040915
44.8 3.4593686 3.4177662 0.0416024
44.9 3.5105634 3.4683138 0.0422496
45.0 3.5608565 3.5180001 0.0428564
45.1 3.6101389 3.5667169 0.043422
45.2 3.6583040 3.6143580 0.043946
45.3 3.7052476 3.6608195 0.0444281
45.4 3.7508678 3.7060000 0.0448678
45.5 3.7950656 3.7498005 0.0452651
45.6 3.8377449 3.7921252 0.0456197
45.7 3.8788125 3.8328810 0.0459315
45.8 3.9181789 3.8719782 0.0462007
45.9 3.9557575 3.9093305 0.046427
46.0 3.9914658 3.9448550 0.0466108
46.1 4.0252248 3.9784725 0.0467523
46.2 4.0569594 4.0101077 0.0468517
46.3 4.0865987 4.0396893 0.0469094
46.4 4.1140758 4.0671501 0.0469257
46.5 4.1393282 4.0924269 0.0469013
46.6 4.1622979 4.1154613 0.0468366
46.7 4.1829313 4.1361989 0.0467324
46.8 4.2011794 4.1545901 0.0465893
46.9 4.2169980 4.1705900 0.046408
47.0 4.2303478 4.1841583 0.0461895
47.1 4.2411940 4.1952595 0.0459345
47.2 4.2495071 4.2038630 0.0456441
47.3 4.2552624 4.2099431 0.0453193
47.4 4.2584402 4.2134791 0.0449611
47.5 4.2590260 4.2144552 0.0445708
47.6 4.2570101 4.2128607 0.0441494
47.7 4.2523881 4.2086899 0.0436982
47.8 4.2451606 4.2019421 0.0432185
47.9 4.2353334 4.1926216 0.0427118
48.0 4.2229170 4.1807379 0.0421791
48.1 4.2079275 4.1663052 0.0416223
48.2 4.1903854 4.1493430 0.0410424
48.3 4.1703165 4.1298753 0.0404412
48.4 4.1477514 4.1079312 0.0398202
48.5 4.1227255 4.0835447 0.0391808
48.6 4.0952790 4.0567543 0.0385247
48.7 4.0654568 4.0276032 0.0378536
48.8 4.0333083 3.9961392 0.0371691
48.9 3.9988873 3.9624145 0.0364728
49.0 3.9622522 3.9264858 0.0357664
49.1 3.9234653 3.8884137 0.0350516
49.2 3.8825934 3.8482632 0.0343302
49.3 3.8397069 3.8061032 0.0336037
49.4 3.7948805 3.7620064 0.0328741
49.5 3.7481921 3.7160492 0.0321429
49.6 3.6997235 3.6683116 0.0314119
49.7 3.6495597 3.6188770 0.0306827
49.8 3.5977889 3.5678318 0.0299571
49.9 3.5445025 3.5152656 0.0292369
50.0 3.4897946 3.4612710 0.0285236
50.1 3.4337620 3.4059431 0.0278189
50.2 3.3765040 3.3493795 0.0271245
50.3 3.3181221 3.2916801 0.026442
50.4 3.2587200 3.2329470 0.025773
50.5 3.1984033 3.1732843 0.025119
50.6 3.1372790 3.1127974 0.0244816
50.7 3.0754558 3.0515937 0.0238621
50.8 3.0130438 2.9897815 0.0232623
50.9 2.9501538 2.9274704 0.0226834
51.0 2.8868975 2.8647707 0.0221268
51.1 2.8233874 2.8017936 0.0215938
51.2 2.7597361 2.7386504 0.0210857
51.3 2.6960567 2.6754529 0.0206038
51.4 2.6324620 2.6123128 0.0201492
51.5 2.5690646 2.5493415 0.0197231
51.6 2.5059765 2.4866500 0.0193265
51.7 2.4433093 2.4243488 0.0189605
51.8 2.3811733 2.3625474 0.0186259
51.9 2.3196779 2.3013542 0.0183237
52.0 2.2589312 2.2408765 0.0180547
52.1 2.1990396 2.1812200 0.0178196
52.2 2.1401078 2.1224885 0.0176193
52.3 2.0822385 2.0647844 0.0174541
52.4 2.0255323 2.0082076 0.0173247
52.5 1.9700876 1.9528558 0.0172318
52.6 1.9159999 1.8988244 0.0171755
52.7 1.8633624 1.8462061 0.0171563
52.8 1.8122652 1.7950907 0.0171745
52.9 1.7627952 1.7455650 0.0172302
53.0 1.7150363 1.6977127 0.0173236
53.1 1.6690689 1.6516143 0.0174546
53.2 1.6249700 1.6073466 0.0176234
53.3 1.5828128 1.5649830 0.0178298
53.4 1.5426666 1.5245930 0.0180736
53.5 1.5045970 1.4862423 0.0183547
53.6 1.4686651 1.4499926 0.0186725
53.7 1.4349284 1.4159015 0.0190269
53.8 1.4034395 1.3840222 0.0194173
53.9 1.3742471 1.3544038 0.0198433
54.0 1.3473951 1.3270910 0.0203041
54.1 1.3229230 1.3021238 0.0207992
54.2 1.3008656 1.2795377 0.0213279
54.3 1.2812530 1.2593638 0.0218892
54.4 1.2641106 1.2416282 0.0224824
54.5 1.2494589 1.2263524 0.0231065
54.6 1.2373137 1.2135531 0.0237606
54.7 1.2276859 1.2032423 0.0244436
54.8 1.2205816 1.1954272 0.0251544
54.9 1.2160017 1.1901099 0.0258918
55.0 1.2139427 1.1872880 0.0266547
55.1 1.2143960 1.1869542 0.0274418
55.2 1.2173480 1.1890963 0.0282517
55.3 1.2227805 1.1936975 0.029083
55.4 1.2306706 1.2007361 0.0299345
55.5 1.2409905 1.2101858 0.0308047
55.6 1.2537077 1.2220157 0.031692
55.7 1.2687854 1.2361904 0.032595
55.8 1.2861819 1.2526698 0.0335121
55.9 1.3058513 1.2714096 0.0344417
56.0 1.3277434 1.2923612 0.0353822
56.1 1.3518036 1.3154716 0.036332
56.2 1.3779733 1.3406838 0.0372895
56.3 1.4061897 1.3679368 0.0382529
56.4 1.4363864 1.3971658 0.0392206
56.5 1.4684930 1.4283021 0.0401909
56.6 1.5024355 1.4612735 0.041162
