  # Jan. 9, 2015 13:29:48
 # jmin,jmax    0   40
 # Eau     0.00200000
 # r0,ra,rb,rdel,tol,Bau,mu   5.0000  25.0000  25.0000   4.0000  1.0000E-03  3.0130E-07  4.4300E+04
 # parity bigJ  0  0        1  0        1  1        2  0        2  1        2  2        3  0        3  1        3  2        3  3
 # jmin,jmax,maxlamb are            0          40          80
 # j and jp are           7           9
 # lam  B-lambda(j,jp)  angle
#    2  11241.8926      9.5941
#    3     96.2621     19.3079
#    4    744.0112     27.4502
#    5     45.6377     35.2161
#    6    191.6561     42.9064
#    7     34.9174     50.6641
#    8     98.2952     58.5887
#    9     25.9650     66.7711
#   10     64.6695     75.3125
#   11     22.7500     84.3414
#   12     50.0118     94.0387
#   13     20.2918    104.6875
#   14     43.6243    116.7917
#   15     19.5112    131.4554
#   16     56.9510    152.5498
   0    4.54272E+03    1.0000000000000000
   1    3.74154E+03    0.8236350700254760
   2    3.50889E+03    0.7724209752803993
   3    3.14119E+03    0.6914790161895851
   4    2.88432E+03    0.6349321500908501
   5    2.54895E+03    0.5611062657828821
   6    2.28528E+03    0.5030648077227931
   7    1.97536E+03    0.4348417016822658
   8    1.72828E+03    0.3804498276141271
   9    1.44529E+03    0.3181557335350262
  10    1.22805E+03    0.2703336690269209
  11    9.71919E+02    0.2139510299582548
  12    7.87801E+02    0.1734207159397975
  13    5.40061E+02    0.1188850723701657
  14    4.02871E+02    0.0886850521457948
