  # Jan. 9, 2015 13:29:48
 # jmin,jmax    0   40
 # Eau     0.00200000
 # r0,ra,rb,rdel,tol,Bau,mu   5.0000  25.0000  25.0000   4.0000  1.0000E-03  3.0130E-07  4.4300E+04
 # parity bigJ  0  0        1  0        1  1        2  0        2  1        2  2        3  0        3  1        3  2        3  3
 # jmin,jmax,maxlamb are            0          40          80
 # j and jp are          22          23
 # lam  B-lambda(j,jp)  angle
#    1  48432.3247      2.4919
#    2   1461.0884      5.5749
#    3   2717.7039      8.2730
#    4    240.4275     10.8799
#    5    563.1422     13.4522
#    6     81.8270     16.0105
#    7    220.3695     18.5644
#    8     52.1549     21.1198
#    9    123.8323     23.6804
#   10     43.4986     26.2493
#   11     84.9952     28.8288
#   12     34.3195     31.4211
#   13     62.8859     34.0283
#   14     29.0629     36.6525
#   15     47.0068     39.2956
#   16     25.5218     41.9598
#   17     37.3548     44.6472
#   18     22.1953     47.3600
#   19     28.6968     50.1008
#   20     17.8667     52.8722
#   21     22.4261     55.6768
#   22     14.6886     58.5178
#   23     18.5743     61.3986
#   24     13.0327     64.3227
#   25     15.9268     67.2943
#   26     11.6941     70.3178
#   27     14.2264     73.3984
#   28     10.7909     76.5419
#   29     12.9460     79.7548
#   30      9.6254     83.0446
#   31     11.5074     86.4201
#   32      9.1700     89.8916
#   33     11.2583     93.4713
#   34      7.9626     97.1739
#   35     11.0904    101.0174
#   36      8.3788    105.0240
#   37     11.0165    109.2223
#   38      8.0528    113.6492
#   39     10.7596    118.3547
#   40      7.5089    123.4092
#   41     11.4065    128.9170
#   42      7.7984    135.0451
#   43     12.4820    142.0946
#   44      8.0159    150.7247
#   45     22.5785    163.2213
   0    4.78047E+03    1.0000000000000000
   1    4.19283E+03    0.8770752339907379
   2    4.09349E+03    0.8562947044914527
   3    3.90909E+03    0.8177211165392479
   4    3.82871E+03    0.8009065014586737
   5    3.70359E+03    0.7747324758531943
   6    3.63554E+03    0.7604979370975674
   7    3.53176E+03    0.7387897857642891
   8    3.45878E+03    0.7235236163656643
   9    3.36016E+03    0.7028924276228529
  10    3.28050E+03    0.6862286281063764
  11    3.18156E+03    0.6655330733138756
  12    3.09843E+03    0.6481430928994703
  13    3.00417E+03    0.6284261060858602
  14    2.92048E+03    0.6109189125724311
  15    2.82785E+03    0.5915415982793641
  16    2.74493E+03    0.5741959051925645
  17    2.65333E+03    0.5550357613865264
  18    2.57171E+03    0.5379622319225178
  19    2.48342E+03    0.5194920329322397
  20    2.40381E+03    0.5028399241379645
  21    2.31843E+03    0.4849801804129559
  22    2.24150E+03    0.4688871727978889
  23    2.15833E+03    0.4514895414909433
  24    2.08182E+03    0.4354849493813371
  25    2.00129E+03    0.4186384657777371
  26    1.92669E+03    0.4030337174824802
  27    1.84691E+03    0.3863443408102745
  28    1.77411E+03    0.3711161867723691
  29    1.69533E+03    0.3546362693058257
  30    1.62248E+03    0.3393976007032937
  31    1.54436E+03    0.3230558820062627
  32    1.47093E+03    0.3076953600754103
  33    1.39251E+03    0.2912915867002881
  34    1.31853E+03    0.2758152642243223
  35    1.23840E+03    0.2590537608327969
  36    1.16186E+03    0.2430439152047871
  37    1.07737E+03    0.2253691998647849
  38    9.96711E+02    0.2084962484181085
  39    9.04766E+02    0.1892628778902329
  40    8.18050E+02    0.1711233430521301
  41    7.13531E+02    0.1492595841033179
  42    6.18068E+02    0.1292901997184112
  43    4.80126E+02    0.1004349307546252
  44    3.73330E+02    0.0780948200350068
