  # Jan. 9, 2015 13:29:48
 # jmin,jmax    0   40
 # Eau     0.00200000
 # r0,ra,rb,rdel,tol,Bau,mu   5.0000  25.0000  25.0000   4.0000  1.0000E-03  3.0130E-07  4.4300E+04
 # parity bigJ  0  0        1  0        1  1        2  0        2  1        2  2        3  0        3  1        3  2        3  3
 # jmin,jmax,maxlamb are            0          40          80
 # j and jp are          12          14
 # lam  B-lambda(j,jp)  angle
#    2  17019.9570      6.0173
#    3    225.7816     12.0638
#    4   1090.1017     17.0956
#    5     80.3132     21.8454
#    6    278.7162     26.4863
#    7     59.4375     31.0890
#    8    131.3544     35.6918
#    9     38.2679     40.3200
#   10     82.2416     44.9930
#   11     28.3325     49.7279
#   12     53.6380     54.5411
#   13     20.3904     59.4497
#   14     42.1055     64.4724
#   15     18.8923     69.6306
#   16     34.5736     74.9494
#   17     17.3053     80.4593
#   18     30.1262     86.1985
#   19     15.9742     92.2164
#   20     26.1359     98.5790
#   21     14.0897    105.3787
#   22     24.0845    112.7522
#   23     13.4803    120.9186
#   24     24.5564    130.2721
#   25     13.3207    141.6784
#   26     35.8713    158.1546
   0    4.51572E+03    1.0000000000000000
   1    3.80618E+03    0.8428743897509163
   2    3.64305E+03    0.8067498504158036
   3    3.39110E+03    0.7509552350130327
   4    3.23625E+03    0.7166642381537442
   5    3.01960E+03    0.6686864110284010
   6    2.85633E+03    0.6325311426468544
   7    2.65807E+03    0.5886252356816278
   8    2.49685E+03    0.5529254226076422
   9    2.30598E+03    0.5106565899255392
  10    2.14330E+03    0.4746300588405901
  11    1.95985E+03    0.4340056382903177
  12    1.80312E+03    0.3992984738584934
  13    1.63002E+03    0.3609669795301937
  14    1.48413E+03    0.3286587005003873
  15    1.32196E+03    0.2927461013176461
  16    1.18509E+03    0.2624371465382510
  17    1.03200E+03    0.2285357766600761
  18    9.08582E+02    0.2012044087757981
  19    7.67360E+02    0.1699309998944225
  20    6.58092E+02    0.1457336519519628
  21    5.22183E+02    0.1156368032068660
  22    4.26820E+02    0.0945186926702345
  23    2.90396E+02    0.0643079269384304
  24    2.25768E+02    0.0499960585297654
