  # July 4, 2014 09:19:42
 # jmin,jmax    0   50
 # Eau     0.00200000
 # r0,ra,rb,rdel,tol,Bau,mu   3.5000  25.0000  25.0000   4.0000  1.0000E-03  3.0130E-07  6.8548E+03
 # parity bigJ  0  0        1  0        1  1        2  0        2  1        2  2        3  0        3  1        3  2        3  3
 # jmin,jmax,maxlamb are            0          50         100
 # j and jp are          17          49
 # lam  B-lambda(j,jp)  angle
#   32      3.8572     10.9806
#   33      0.0382     19.3384
#   34      1.5560     25.2693
#   35      0.0186     30.2439
#   36      0.9620     34.6832
#   37      0.0170     38.7780
#   38      0.7161     42.6343
#   39      0.0145     46.3185
#   40      0.5584     49.8754
#   41      0.0114     53.3375
#   42      0.3984     56.7295
#   43      0.0083     60.0707
#   44      0.2535     63.3773
#   45      0.0057     66.6628
#   46      0.1645     69.9393
#   47      0.0037     73.2179
#   48      0.1124     76.5088
#   49      0.0020     79.8221
#   50      0.0648     83.1680
#   51      0.0009     86.5569
#   52      0.0277     90.0000
#   53      0.0004     93.5093
#   54      0.0109     97.0986
#   55      0.0002    100.7835
#   56      0.0055    104.5826
#   57      0.0001    108.5182
#   58      0.0026    112.6184
#   59      0.0000    116.9192
#   60      0.0008    121.4685
#   61      0.0000    126.3332
#   62      0.0001    131.6122
#   63      0.0000    137.4635
#   64      0.0000    144.1704
#   65      0.0000    152.3541
#   66      0.0000    164.1664
   0    1.07395E+01    1.0000000000000000
   1    8.73289E+00    0.8131571023613745
   2    6.04983E+00    0.5633254239536704
   3    3.99682E+00    0.3721613548077867
   4    2.90621E+00    0.2706102141200841
   5    2.40458E+00    0.2239005564339905
   6    2.09252E+00    0.1948435667993423
   7    1.81965E+00    0.1694351151491714
   8    1.57887E+00    0.1470152717103871
   9    1.36952E+00    0.1275216815963625
  10    1.18698E+00    0.1105244358570667
  11    1.04833E+00    0.0976148828933626
  12    9.63556E-01    0.0897209027447500
  13    9.06586E-01    0.0844161176971743
  14    8.45866E-01    0.0787621926798194
  15    7.78204E-01    0.0724618906574321
  16    7.17374E-01    0.0667977730678396
  17    6.68440E-01    0.0622413013800878
  18    6.26437E-01    0.0583302410717253
  19    5.86647E-01    0.0546252515037408
  20    5.49026E-01    0.0511221456181303
  21    5.14228E-01    0.0478819654839191
  22    4.83009E-01    0.0449750361833141
  23    4.54119E-01    0.0422849477142844
  24    4.29054E-01    0.0399510252509848
  25    4.05002E-01    0.0377114784783479
  26    3.87095E-01    0.0360441290324484
  27    3.67404E-01    0.0342105709682263
  28    3.58825E-01    0.0334117221043808
  29    3.43786E-01    0.0320114002770579
  30    3.45111E-01    0.0321347552109914
  31    3.36742E-01    0.0313554972315485
  32    3.43172E-01    0.0319542663511079
  33    2.69335E-01    0.0250789068290836
  34    3.54372E-01    0.0329971175300136
