  # July 4, 2014 09:19:42
 # jmin,jmax    0   50
 # Eau     0.00200000
 # r0,ra,rb,rdel,tol,Bau,mu   3.5000  25.0000  25.0000   4.0000  1.0000E-03  3.0130E-07  6.8548E+03
 # parity bigJ  0  0        1  0        1  1        2  0        2  1        2  2        3  0        3  1        3  2        3  3
 # jmin,jmax,maxlamb are            0          50         100
 # j and jp are          26          28
 # lam  B-lambda(j,jp)  angle
#    2   2980.4960      2.9483
#    3     72.5038      5.9000
#    4    359.5550      8.3479
#    5     22.4259     10.6476
#    6    107.7241     12.8810
#    7      7.6471     15.0799
#    8     43.2224     17.2601
#    9      3.0601     19.4302
#   10     20.4448     21.5960
#   11      1.5324     23.7612
#   12     10.9232     25.9287
#   13      0.8512     28.1008
#   14      6.5610     30.2794
#   15      0.4589     32.4661
#   16      4.3594     34.6624
#   17      0.2670     36.8698
#   18      3.0570     39.0897
#   19      0.1772     41.3234
#   20      2.2825     43.5724
#   21      0.1285     45.8380
#   22      1.8102     48.1217
#   23      0.1020     50.4251
#   24      1.4265     52.7497
#   25      0.0846     55.0972
#   26      1.1996     57.4695
#   27      0.0705     59.8684
#   28      1.0340     62.2962
#   29      0.0588     64.7550
#   30      0.8510     67.2472
#   31      0.0484     69.7757
#   32      0.7168     72.3434
#   33      0.0390     74.9535
#   34      0.6485     77.6097
#   35      0.0306     80.3161
#   36      0.5132     83.0773
#   37      0.0238     85.8985
#   38      0.3741     88.7857
#   39      0.0185     91.7457
#   40      0.3100     94.7865
#   41      0.0140     97.9176
#   42      0.2786    101.1500
#   43      0.0102    104.4971
#   44      0.2465    107.9755
#   45      0.0070    111.6054
#   46      0.2008    115.4130
#   47      0.0046    119.4321
#   48      0.1562    123.7085
#   49      0.0027    128.3065
#   50      0.1452    133.3217
#   51      0.0014    138.9069
#   52      0.1555    145.3376
#   53      0.0005    153.2165
#   54      0.1887    164.6311
   0    4.22258E+02    1.0000000000000000
   1    4.07038E+02    0.9639547175490077
   2    3.92299E+02    0.9290497198623946
   3    3.77424E+02    0.8938229407304601
   4    3.63592E+02    0.8610647864702135
   5    3.48949E+02    0.8263876386482124
   6    3.34667E+02    0.7925639761632953
   7    3.20109E+02    0.7580894540951575
   8    3.06348E+02    0.7254993764944400
   9    2.92813E+02    0.6934456523223851
  10    2.80110E+02    0.6633629524687286
  11    2.67533E+02    0.6335779296638595
  12    2.55927E+02    0.6060907997129593
  13    2.44563E+02    0.5791797116964151
  14    2.34004E+02    0.5541727809005579
  15    2.23615E+02    0.5295693400425278
  16    2.14058E+02    0.5069352509728086
  17    2.04666E+02    0.4846937627575865
  18    1.95976E+02    0.4641144791665391
  19    1.87356E+02    0.4436999870042092
  20    1.79420E+02    0.4249056112904145
  21    1.71573E+02    0.4063231658313104
  22    1.64322E+02    0.3891508657161401
  23    1.57064E+02    0.3719630089432366
  24    1.50362E+02    0.3560904757768016
  25    1.43646E+02    0.3401848910050569
  26    1.37486E+02    0.3255970571586871
  27    1.31233E+02    0.3107888230880723
  28    1.25538E+02    0.2973017646642954
  29    1.19668E+02    0.2833992319957923
  30    1.14381E+02    0.2708793199005762
  31    1.08837E+02    0.2577507995082250
  32    1.03913E+02    0.2460892494210035
  33    9.86670E+01    0.2336649853610096
  34    9.40764E+01    0.2227935922024934
  35    8.90891E+01    0.2109824502931454
  36    8.47563E+01    0.2007214020073635
  37    8.00094E+01    0.1894799193062925
  38    7.59438E+01    0.1798516015093278
  39    7.13170E+01    0.1688942922968263
  40    6.75871E+01    0.1600610225196803
  41    6.29913E+01    0.1491772666850320
  42    5.95152E+01    0.1409450718667117
  43    5.49843E+01    0.1302148745219971
  44    5.17637E+01    0.1225877881257807
  45    4.71431E+01    0.1116452329767291
  46    4.41438E+01    0.1045422195755132
  47    3.93411E+01    0.0931684715259725
  48    3.66128E+01    0.0867072352850076
  49    3.13678E+01    0.0742857904196896
  50    2.90399E+01    0.0687729117905205
  51    2.23201E+01    0.0528589790367903
  52    2.13355E+01    0.0505272122175561
