  # July 4, 2014 09:19:42
 # jmin,jmax    0   50
 # Eau     0.00200000
 # r0,ra,rb,rdel,tol,Bau,mu   3.5000  25.0000  25.0000   4.0000  1.0000E-03  3.0130E-07  6.8548E+03
 # parity bigJ  0  0        1  0        1  1        2  0        2  1        2  2        3  0        3  1        3  2        3  3
 # jmin,jmax,maxlamb are            0          50         100
 # j and jp are          30          50
 # lam  B-lambda(j,jp)  angle
#   20     16.1183      6.5224
#   21      1.0319     11.5097
#   22      7.2823     15.0709
#   23      0.4964     18.0716
#   24      4.7679     20.7582
#   25      0.3351     23.2414
#   26      3.5336     25.5822
#   27      0.2473     27.8180
#   28      2.7499     29.9740
#   29      0.1924     32.0678
#   30      2.1410     34.1123
#   31      0.1485     36.1176
#   32      1.5876     38.0912
#   33      0.1172     40.0396
#   34      1.1308     41.9677
#   35      0.0936     43.8799
#   36      0.8591     45.7798
#   37      0.0749     47.6707
#   38      0.7292     49.5552
#   39      0.0595     51.4359
#   40      0.6106     53.3150
#   41      0.0455     55.1946
#   42      0.4640     57.0766
#   43      0.0329     58.9627
#   44      0.3447     60.8549
#   45      0.0214     62.7546
#   46      0.2470     64.6637
#   47      0.0118     66.5836
#   48      0.1419     68.5160
#   49      0.0054     70.4626
#   50      0.0591     72.4250
#   51      0.0022     74.4049
#   52      0.0214     76.4043
#   53      0.0009     78.4248
#   54      0.0095     80.4686
#   55      0.0003     82.5378
#   56      0.0041     84.6345
#   57      0.0001     86.7614
#   58      0.0012     88.9210
#   59      0.0000     91.1162
#   60      0.0002     93.3504
#   61      0.0000     95.6271
#   62      0.0000     97.9503
#   63      0.0000    100.3246
#   64      0.0000    102.7551
#   65      0.0000    105.2477
#   66      0.0000    107.8093
#   67      0.0000    110.4481
#   68      0.0000    113.1734
#   69      0.0000    115.9968
#   70      0.0000    118.9323
#   71      0.0000    121.9974
#   72      0.0000    125.2143
#   73      0.0000    128.6117
#   74      0.0000    132.2287
#   75      0.0000    136.1201
#   76      0.0000    140.3670
#   77      0.0000    145.0995
#   78      0.0000    150.5515
#   79      0.0000    157.2347
#   80      0.0000    166.9178
   0    2.95269E+01    1.0000000000000000
   1    2.59944E+01    0.8803614651411971
   2    2.04798E+01    0.6935972524578964
   3    1.50307E+01    0.5090506514891326
   4    1.09800E+01    0.3718633696507389
   5    8.49217E+00    0.2876077306301069
   6    6.99827E+00    0.2370129796749083
   7    5.91587E+00    0.2003549416332562
   8    5.02043E+00    0.1700289924452296
   9    4.34437E+00    0.1471326372181280
  10    3.91435E+00    0.1325688218877018
  11    3.63850E+00    0.1232266387108091
  12    3.38401E+00    0.1146076634350182
  13    3.08925E+00    0.1046249408797042
  14    2.78224E+00    0.0942270639118955
  15    2.51630E+00    0.0852205117968743
  16    2.31218E+00    0.0783074250096399
  17    2.15748E+00    0.0730681155630134
  18    2.03711E+00    0.0689917527183739
  19    1.94579E+00    0.0658987190499104
  20    1.87515E+00    0.0635064674759978
  21    1.80622E+00    0.0611721096199166
  22    1.72365E+00    0.0583754516735703
  23    1.63201E+00    0.0552718777866303
  24    1.55028E+00    0.0525040812183013
  25    1.49075E+00    0.0504877917203085
  26    1.44797E+00    0.0490390067099436
  27    1.40799E+00    0.0476848973660025
  28    1.36316E+00    0.0461668162690449
  29    1.31605E+00    0.0445711005992896
  30    1.27233E+00    0.0430903462664788
  31    1.23396E+00    0.0417909647597536
  32    1.19896E+00    0.0406056228469577
  33    1.16497E+00    0.0394545670070811
  34    1.13147E+00    0.0383200318665614
  35    1.09922E+00    0.0372276037719397
  36    1.06884E+00    0.0361987750401609
  37    1.04030E+00    0.0352321113774395
  38    1.01320E+00    0.0343145538471646
  39    9.87295E-01    0.0334370870549505
  40    9.62565E-01    0.0325995630305670
  41    9.39141E-01    0.0318062594075512
  42    9.17106E-01    0.0310599951154619
  43    8.96418E-01    0.0303593429238351
  44    8.76915E-01    0.0296988092900895
  45    8.58376E-01    0.0290709634740706
  46    8.40634E-01    0.0284700765021963
  47    8.23587E-01    0.0278927260114076
  48    8.07634E-01    0.0273524580652745
  49    7.92903E-01    0.0268535587246074
  50    7.79712E-01    0.0264068173743756
  51    7.69420E-01    0.0260582534241785
  52    7.57997E-01    0.0256713660638202
  53    7.42789E-01    0.0251563160972933
  54    7.44667E-01    0.0252199225579460
  55    7.34671E-01    0.0248813868435061
  56    6.93654E-01    0.0234922461839242
  57    6.19931E-01    0.0209954375399882
  58    6.44203E-01    0.0218174800522090
  59    4.35018E-01    0.0147329117342991
  60    8.43424E-01    0.0285645664642125
