  # July 4, 2014 09:19:42
 # jmin,jmax    0   50
 # Eau     0.00200000
 # r0,ra,rb,rdel,tol,Bau,mu   3.5000  25.0000  25.0000   4.0000  1.0000E-03  3.0130E-07  6.8548E+03
 # parity bigJ  0  0        1  0        1  1        2  0        2  1        2  2        3  0        3  1        3  2        3  3
 # jmin,jmax,maxlamb are            0          50         100
 # j and jp are          25          47
 # lam  B-lambda(j,jp)  angle
#   22     11.9967      7.7110
#   23      0.4678     13.5992
#   24      5.0062     17.7971
#   25      0.2670     21.3301
#   26      3.2332     24.4906
#   27      0.1942     27.4103
#   28      2.3186     30.1618
#   29      0.1535     32.7899
#   30      1.8323     35.3247
#   31      0.1188     37.7875
#   32      1.5473     40.1940
#   33      0.0883     42.5564
#   34      1.2127     44.8842
#   35      0.0624     47.1851
#   36      0.8520     49.4657
#   37      0.0426     51.7314
#   38      0.5728     53.9870
#   39      0.0298     56.2368
#   40      0.3988     58.4844
#   41      0.0214     60.7335
#   42      0.2855     62.9872
#   43      0.0145     65.2488
#   44      0.2095     67.5210
#   45      0.0091     69.8070
#   46      0.1812     72.1096
#   47      0.0056     74.4319
#   48      0.1586     76.7767
#   49      0.0032     79.1475
#   50      0.1048     81.5473
#   51      0.0015     83.9800
#   52      0.0494     86.4491
#   53      0.0006     88.9590
#   54      0.0202     91.5142
#   55      0.0003     94.1199
#   56      0.0088     96.7818
#   57      0.0001     99.5065
#   58      0.0033    102.3015
#   59      0.0000    105.1756
#   60      0.0008    108.1391
#   61      0.0000    111.2046
#   62      0.0001    114.3871
#   63      0.0000    117.7053
#   64      0.0000    121.1831
#   65      0.0000    124.8516
#   66      0.0000    128.7523
#   67      0.0000    132.9440
#   68      0.0000    137.5136
#   69      0.0000    142.6003
#   70      0.0000    148.4543
#   71      0.0000    155.6238
#   72      0.0000    166.0040
   0    2.44466E+01    1.0000000000000000
   1    2.07932E+01    0.8505569118468274
   2    1.55570E+01    0.6363670250327889
   3    1.09976E+01    0.4498617207639586
   4    8.00150E+00    0.3273047422090444
   5    6.23810E+00    0.2551720408756714
   6    5.16799E+00    0.2113988136791211
   7    4.51886E+00    0.1848460985886928
   8    4.11574E+00    0.1683562874894408
   9    3.74805E+00    0.1533155956637887
  10    3.30262E+00    0.1350949523022748
  11    2.84935E+00    0.1165539887920400
  12    2.50995E+00    0.1026706202012233
  13    2.30309E+00    0.0942087896240718
  14    2.15775E+00    0.0882636398306465
  15    2.02335E+00    0.0827661449425399
  16    1.90453E+00    0.0779057244259751
  17    1.80600E+00    0.0738752343126922
  18    1.70439E+00    0.0697190157990688
  19    1.58552E+00    0.0648565010567319
  20    1.46932E+00    0.0601030050563775
  21    1.38058E+00    0.0564733478812872
  22    1.31777E+00    0.0539039881917590
  23    1.26304E+00    0.0516650796629842
  24    1.20738E+00    0.0493883917013413
  25    1.15417E+00    0.0472118904181769
  26    1.10698E+00    0.0452813544083767
  27    1.06396E+00    0.0435219013205331
  28    1.02238E+00    0.0418209375348922
  29    9.82154E-01    0.0401754486897257
  30    9.44870E-01    0.0386503285703333
  31    9.11118E-01    0.0372696997544768
  32    8.80373E-01    0.0360120549054300
  33    8.51492E-01    0.0348306582342775
  34    8.23840E-01    0.0336995212740857
  35    7.96924E-01    0.0325985320465735
  36    7.70475E-01    0.0315166021480351
  37    7.44048E-01    0.0304356032168265
  38    7.18090E-01    0.0293737987866768
  39    6.90280E-01    0.0282362041578481
  40    6.68366E-01    0.0273398071246741
  41    6.40111E-01    0.0261840213031538
  42    6.30572E-01    0.0257938047429812
  43    6.14653E-01    0.0251426475318454
  44    6.18576E-01    0.0253031113188662
  45    5.95846E-01    0.0243733343159425
  46    6.85269E-01    0.0280312220349722
  47    5.67095E-01    0.0231972585124125
  48    7.27259E-01    0.0297488579499844
  49    4.93776E-01    0.0201981183177061
  50    7.29730E-01    0.0298499324287497
