  # July 4, 2014 09:19:42
 # jmin,jmax    0   50
 # Eau     0.00200000
 # r0,ra,rb,rdel,tol,Bau,mu   3.5000  25.0000  25.0000   4.0000  1.0000E-03  3.0130E-07  6.8548E+03
 # parity bigJ  0  0        1  0        1  1        2  0        2  1        2  2        3  0        3  1        3  2        3  3
 # jmin,jmax,maxlamb are            0          50         100
 # j and jp are          29          37
 # lam  B-lambda(j,jp)  angle
#    8    129.2971      4.8700
#    9     11.1852      8.7910
#   10     38.8128     11.7034
#   11      4.4705     14.2421
#   12     18.1103     16.5815
#   13      2.5861     18.7979
#   14     10.2477     20.9324
#   15      1.6755     23.0095
#   16      6.3433     25.0453
#   17      1.2677     27.0509
#   18      4.2302     29.0345
#   19      0.9926     31.0021
#   20      3.2573     32.9585
#   21      0.6688     34.9074
#   22      2.2875     36.8521
#   23      0.3825     38.7952
#   24      1.6710     40.7390
#   25      0.2161     42.6855
#   26      1.4181     44.6366
#   27      0.1384     46.5939
#   28      1.1560     48.5590
#   29      0.1005     50.5334
#   30      0.9168     52.5187
#   31      0.0819     54.5161
#   32      0.8045     56.5272
#   33      0.0680     58.5534
#   34      0.6668     60.5962
#   35      0.0538     62.6570
#   36      0.4895     64.7375
#   37      0.0426     66.8393
#   38      0.3783     68.9641
#   39      0.0335     71.1137
#   40      0.3213     73.2902
#   41      0.0255     75.4956
#   42      0.2772     77.7323
#   43      0.0188     80.0028
#   44      0.2171     82.3098
#   45      0.0132     84.6564
#   46      0.1523     87.0458
#   47      0.0089     89.4819
#   48      0.1206     91.9690
#   49      0.0055     94.5117
#   50      0.1047     97.1155
#   51      0.0028     99.7868
#   52      0.0705    102.5329
#   53      0.0012    105.3622
#   54      0.0341    108.2851
#   55      0.0005    111.3137
#   56      0.0152    114.4631
#   57      0.0002    117.7520
#   58      0.0073    121.2040
#   59      0.0001    124.8502
#   60      0.0028    128.7323
#   61      0.0000    132.9090
#   62      0.0007    137.4675
#   63      0.0000    142.5474
#   64      0.0001    148.3996
#   65      0.0000    155.5737
#   66      0.0001    165.9700
   0    8.33521E+01    1.0000000000000000
   1    7.60938E+01    0.9129202794559003
   2    6.63019E+01    0.7954430281540308
   3    5.77701E+01    0.6930851338543289
   4    5.08955E+01    0.6106087967408550
   5    4.49675E+01    0.5394879014800503
   6    3.98090E+01    0.4776007839997300
   7    3.53854E+01    0.4245296714056433
   8    3.15461E+01    0.3784673683791338
   9    2.82313E+01    0.3386989387916056
  10    2.54169E+01    0.3049342204568689
  11    2.29866E+01    0.2757766039267180
  12    2.08362E+01    0.2499782204729757
  13    1.89247E+01    0.2270450279950509
  14    1.71966E+01    0.2063124389297168
  15    1.56244E+01    0.1874500877195253
  16    1.42647E+01    0.1711383740621272
  17    1.31372E+01    0.1576108183144954
  18    1.21631E+01    0.1459243012278534
  19    1.12826E+01    0.1353605680485674
  20    1.05087E+01    0.1260761266090719
  21    9.84368E+00    0.1180975854672893
  22    9.25002E+00    0.1109752727019259
  23    8.69148E+00    0.1042742064144461
  24    8.15915E+00    0.0978876737244927
  25    7.65556E+00    0.0918460637010814
  26    7.20206E+00    0.0864052195602621
  27    6.81300E+00    0.0817375832622499
  28    6.49546E+00    0.0779279365885185
  29    6.21632E+00    0.0745790563325403
  30    5.96155E+00    0.0715224498532325
  31    5.69967E+00    0.0683806772710752
  32    5.45298E+00    0.0654209877492739
  33    5.19983E+00    0.0623838671308259
  34    4.97523E+00    0.0596892916255604
  35    4.74360E+00    0.0569103286246223
  36    4.54953E+00    0.0545820352800412
  37    4.33684E+00    0.0520302956596386
  38    4.18481E+00    0.0502063699561086
  39    3.97038E+00    0.0476338025196467
  40    3.86367E+00    0.0463535598527923
  41    3.62253E+00    0.0434605319579722
  42    3.54433E+00    0.0425224280350676
  43    3.28371E+00    0.0393956056028989
  44    3.20889E+00    0.0384979471036492
  45    2.94056E+00    0.0352787121927578
  46    2.90125E+00    0.0348071908912701
  47    2.61412E+00    0.0313623862825958
  48    2.64926E+00    0.0317839462544544
  49    2.32082E+00    0.0278436184119690
  50    2.46239E+00    0.0295420682551104
  51    2.08387E+00    0.0250007952730414
  52    2.18565E+00    0.0262218866909341
  53    1.68666E+00    0.0202353328850731
  54    1.96842E+00    0.0236157515579250
  55    1.30965E+00    0.0157122229506264
  56    1.86646E+00    0.0223925000524773
  57    8.65413E-01    0.0103826182368664
  58    2.07502E+00    0.0248946607877609
