  # July 4, 2014 09:19:42
 # jmin,jmax    0   50
 # Eau     0.00200000
 # r0,ra,rb,rdel,tol,Bau,mu   3.5000  25.0000  25.0000   4.0000  1.0000E-03  3.0130E-07  6.8548E+03
 # parity bigJ  0  0        1  0        1  1        2  0        2  1        2  2        3  0        3  1        3  2        3  3
 # jmin,jmax,maxlamb are            0          50         100
 # j and jp are          25          26
 # lam  B-lambda(j,jp)  angle
#    1   1052.1305      2.2042
#    2      4.9837      4.9307
#    3    183.1903      7.3163
#    4      2.6934      9.6204
#    5     80.8136     11.8929
#    6      1.6850     14.1516
#    7     46.5988     16.4049
#    8      1.1537     18.6577
#    9     29.4994     20.9131
#   10      0.8587     23.1732
#   11     20.2534     25.4401
#   12      0.6165     27.7152
#   13     14.1070     30.0000
#   14      0.4606     32.2959
#   15     10.0680     34.6043
#   16      0.3781     36.9264
#   17      7.3311     39.2637
#   18      0.3061     41.6176
#   19      5.4521     43.9895
#   20      0.2357     46.3810
#   21      4.1655     48.7938
#   22      0.1822     51.2295
#   23      3.1863     53.6900
#   24      0.1448     56.1773
#   25      2.5178     58.6936
#   26      0.1149     61.2411
#   27      1.9856     63.8224
#   28      0.0903     66.4403
#   29      1.6030     69.0979
#   30      0.0709     71.7984
#   31      1.3482     74.5457
#   32      0.0554     77.3440
#   33      1.1220     80.1980
#   34      0.0427     83.1130
#   35      0.9510     86.0953
#   36      0.0325     89.1518
#   37      0.8370     92.2907
#   38      0.0241     95.5218
#   39      0.7581     98.8565
#   40      0.0170    102.3085
#   41      0.6992    105.8948
#   42      0.0112    109.6362
#   43      0.5844    113.5597
#   44      0.0068    117.6999
#   45      0.4122    122.1040
#   46      0.0039    126.8381
#   47      0.2956    132.0003
#   48      0.0021    137.7478
#   49      0.2668    144.3637
#   50      0.0009    152.4678
#   51      0.3343    164.2068
   0    1.86150E+02    1.0000000000000000
   1    1.59131E+02    0.8548517992971781
   2    1.37194E+02    0.7370048033211749
   3    1.19875E+02    0.6439675680738778
   4    1.06799E+02    0.5737218747836169
   5    9.53873E+01    0.5124205074470951
   6    8.77063E+01    0.4711584136597484
   7    8.07135E+01    0.4335931951598400
   8    7.54496E+01    0.4053155338177873
   9    7.06473E+01    0.3795171582864110
  10    6.70711E+01    0.3603059837588713
  11    6.33182E+01    0.3401453351630877
  12    6.06236E+01    0.3256697623866209
  13    5.76790E+01    0.3098517272010849
  14    5.54915E+01    0.2981004209476653
  15    5.29843E+01    0.2846317495064224
  16    5.11853E+01    0.2749674969925582
  17    4.90145E+01    0.2633057844553885
  18    4.75196E+01    0.2552752455278431
  19    4.56059E+01    0.2449948025984952
  20    4.43328E+01    0.2381559574022411
  21    4.26107E+01    0.2289045879294249
  22    4.15768E+01    0.2233506729878652
  23    3.99798E+01    0.2147715831795305
  24    3.91334E+01    0.2102245622633133
  25    3.75719E+01    0.2018360440995170
  26    3.69421E+01    0.1984527808308578
  27    3.53917E+01    0.1901244960794622
  28    3.49533E+01    0.1877689631195484
  29    3.33780E+01    0.1793068378838150
  30    3.30812E+01    0.1777122380664766
  31    3.15234E+01    0.1693439182977809
  32    3.13684E+01    0.1685111816950122
  33    2.98537E+01    0.1603738640997451
  34    2.98387E+01    0.1602934334816276
  35    2.83434E+01    0.1522609032204023
  36    2.84479E+01    0.1528219833925092
  37    2.69461E+01    0.1447546155587044
  38    2.72469E+01    0.1463703178451243
  39    2.56186E+01    0.1376232576372353
  40    2.61112E+01    0.1402694738636062
  41    2.43008E+01    0.1305439691085743
  42    2.51030E+01    0.1348531253576741
  43    2.29859E+01    0.1234802659828962
  44    2.43376E+01    0.1307413761361773
  45    2.16478E+01    0.1162918606825601
  46    2.40950E+01    0.1294384334304499
  47    2.02296E+01    0.1086734108855568
  48    2.50827E+01    0.1347442877507022
  49    1.78037E+01    0.0956417084743408
  50    3.29272E+01    0.1768848000390747
