  # July 4, 2014 09:19:42
 # jmin,jmax    0   50
 # Eau     0.00200000
 # r0,ra,rb,rdel,tol,Bau,mu   3.5000  25.0000  25.0000   4.0000  1.0000E-03  3.0130E-07  6.8548E+03
 # parity bigJ  0  0        1  0        1  1        2  0        2  1        2  2        3  0        3  1        3  2        3  3
 # jmin,jmax,maxlamb are            0          50         100
 # j and jp are          31          35
 # lam  B-lambda(j,jp)  angle
#    4    714.6008      3.4261
#    5     38.6725      6.4141
#    6    152.1150      8.7454
#    7     17.5718     10.8533
#    8     57.7332     12.8497
#    9      7.5915     14.7813
#   10     27.2423     16.6721
#   11      3.8493     18.5362
#   12     14.3158     20.3823
#   13      2.3376     22.2165
#   14      8.3618     24.0431
#   15      1.6223     25.8652
#   16      5.6042     27.6855
#   17      1.1118     29.5058
#   18      3.7986     31.3279
#   19      0.7253     33.1533
#   20      2.9172     34.9831
#   21      0.4549     36.8185
#   22      2.2003     38.6606
#   23      0.2840     40.5105
#   24      1.6297     42.3690
#   25      0.1845     44.2371
#   26      1.3776     46.1158
#   27      0.1308     48.0060
#   28      1.1530     49.9086
#   29      0.1064     51.8247
#   30      0.8978     53.7553
#   31      0.0885     55.7013
#   32      0.7760     57.6639
#   33      0.0692     59.6442
#   34      0.6573     61.6435
#   35      0.0543     63.6630
#   36      0.4868     65.7041
#   37      0.0436     67.7682
#   38      0.3759     69.8569
#   39      0.0343     71.9720
#   40      0.3202     74.1152
#   41      0.0264     76.2886
#   42      0.2764     78.4944
#   43      0.0195     80.7349
#   44      0.2171     83.0129
#   45      0.0136     85.3312
#   46      0.1529     87.6932
#   47      0.0092     90.1025
#   48      0.1206     92.5633
#   49      0.0056     95.0803
#   50      0.1051     97.6588
#   51      0.0029    100.3052
#   52      0.0717    103.0266
#   53      0.0013    105.8315
#   54      0.0350    108.7300
#   55      0.0005    111.7344
#   56      0.0156    114.8595
#   57      0.0002    118.1238
#   58      0.0076    121.5510
#   59      0.0001    125.1718
#   60      0.0030    129.0278
#   61      0.0000    133.1773
#   62      0.0008    137.7071
#   63      0.0000    142.7560
#   64      0.0002    148.5736
#   65      0.0000    155.7066
#   66      0.0001    166.0448
   0    1.92068E+02    1.0000000000000000
   1    1.83590E+02    0.9558603579281302
   2    1.71648E+02    0.8936809588280357
   3    1.60301E+02    0.8346039608860899
   4    1.50076E+02    0.7813662282298544
   5    1.40363E+02    0.7307983141876443
   6    1.31105E+02    0.6825981779999181
   7    1.22378E+02    0.6371585294640072
   8    1.14138E+02    0.5942577455612527
   9    1.06430E+02    0.5541284293766922
  10    9.93106E+01    0.5170589463779733
  11    9.27209E+01    0.4827496756445454
  12    8.66051E+01    0.4509079068547722
  13    8.09475E+01    0.4214517936868435
  14    7.56974E+01    0.3941173298840618
  15    7.08272E+01    0.3687604734580738
  16    6.63819E+01    0.3456162056985621
  17    6.23541E+01    0.3246454180742384
  18    5.86508E+01    0.3053641813110202
  19    5.52208E+01    0.2875060873365488
  20    5.20796E+01    0.2711517372470814
  21    4.92115E+01    0.2562191221322904
  22    4.65606E+01    0.2424168166414290
  23    4.40846E+01    0.2295257243631141
  24    4.17741E+01    0.2174962000658823
  25    3.96253E+01    0.2063086763098371
  26    3.76407E+01    0.1959756129314366
  27    3.58030E+01    0.1864077794393505
  28    3.40892E+01    0.1774846441043245
  29    3.24569E+01    0.1689861283662155
  30    3.09069E+01    0.1609162308132274
  31    2.94315E+01    0.1532344886355851
  32    2.80643E+01    0.1461164981342182
  33    2.67787E+01    0.1394228682219137
  34    2.55922E+01    0.1332454336218305
  35    2.44526E+01    0.1273119444034772
  36    2.33893E+01    0.1217759717949799
  37    2.23402E+01    0.1163138330090790
  38    2.13727E+01    0.1112767402514586
  39    2.03736E+01    0.1060746849509078
  40    1.94990E+01    0.1015214123905317
  41    1.85318E+01    0.0964853005323496
  42    1.77522E+01    0.0924267141767173
  43    1.68337E+01    0.0876443950045156
  44    1.61310E+01    0.0839858817984454
  45    1.52715E+01    0.0795106311667606
  46    1.46419E+01    0.0762328906026188
  47    1.37948E+01    0.0718222264615535
  48    1.32345E+01    0.0689052070670937
  49    1.23599E+01    0.0643518322426102
  50    1.18945E+01    0.0619287207714560
  51    1.09670E+01    0.0570995532161735
  52    1.05526E+01    0.0549419897062029
  53    9.69136E+00    0.0504579041779049
  54    9.44090E+00    0.0491539107321526
  55    8.43207E+00    0.0439014501758410
  56    8.29660E+00    0.0431961078526025
  57    7.11591E+00    0.0370488776077167
  58    7.21333E+00    0.0375560822331857
  59    5.72729E+00    0.0298190279029358
  60    6.07634E+00    0.0316363904416734
  61    3.93886E+00    0.0205075991096506
  62    5.18195E+00    0.0269797309654987
