  # July 4, 2014 09:19:42
 # jmin,jmax    0   50
 # Eau     0.00200000
 # r0,ra,rb,rdel,tol,Bau,mu   3.5000  25.0000  25.0000   4.0000  1.0000E-03  3.0130E-07  6.8548E+03
 # parity bigJ  0  0        1  0        1  1        2  0        2  1        2  2        3  0        3  1        3  2        3  3
 # jmin,jmax,maxlamb are            0          50         100
 # j and jp are          11          48
 # lam  B-lambda(j,jp)  angle
#   37      4.1289     14.6817
#   38      0.0049     25.9535
#   39      1.7850     33.9878
#   40      0.0045     40.7673
#   41      1.0813     46.8599
#   42      0.0034     52.5256
#   43      0.6900     57.9111
#   44      0.0026     63.1108
#   45      0.4371     68.1915
#   46      0.0018     73.2050
#   47      0.2474     78.1941
#   48      0.0011     83.1973
#   49      0.1242     88.2516
#   50      0.0006     93.3954
#   51      0.0696     98.6707
#   52      0.0004    104.1275
#   53      0.0448    109.8282
#   54      0.0002    115.8562
#   55      0.0244    122.3320
#   56      0.0000    129.4443
#   57      0.0105    137.5296
#   58      0.0000    147.3221
#   59      0.0059    161.3710
   0    1.46987E+01    1.0000000000000000
   1    1.11136E+01    0.7560930790860684
   2    7.12506E+00    0.4847411134746822
   3    4.51274E+00    0.3070166443924061
   4    3.23400E+00    0.2200197905800440
   5    2.63600E+00    0.1793356743920018
   6    2.27552E+00    0.1548110308958734
   7    1.93991E+00    0.1319784853744525
   8    1.69669E+00    0.1154313673991660
   9    1.52293E+00    0.1036099583475496
  10    1.39571E+00    0.0949549891419917
  11    1.25770E+00    0.0855651761544886
  12    1.15773E+00    0.0787643348972032
  13    1.05315E+00    0.0716493841638371
  14    9.90897E-01    0.0674139591419313
  15    8.98680E-01    0.0611401024779851
  16    8.60247E-01    0.0585254415745403
  17    7.62790E-01    0.0518951131535971
  18    7.51352E-01    0.0511169370543212
  19    6.34337E-01    0.0431559851752682
  20    6.58910E-01    0.0448278208399473
  21    5.24090E-01    0.0356555355035560
  22    6.46002E-01    0.0439496578709525
