  # July 4, 2014 09:19:42
 # jmin,jmax    0   50
 # Eau     0.00200000
 # r0,ra,rb,rdel,tol,Bau,mu   3.5000  25.0000  25.0000   4.0000  1.0000E-03  3.0130E-07  6.8548E+03
 # parity bigJ  0  0        1  0        1  1        2  0        2  1        2  2        3  0        3  1        3  2        3  3
 # jmin,jmax,maxlamb are            0          50         100
 # j and jp are          19          41
 # lam  B-lambda(j,jp)  angle
#   22     10.1630      9.4273
#   23      0.4625     16.6523
#   24      4.1091     21.8144
#   25      0.2966     26.1703
#   26      2.4732     30.0778
#   27      0.1797     33.6986
#   28      1.6510     37.1218
#   29      0.0997     40.4030
#   30      1.1829     43.5795
#   31      0.0568     46.6782
#   32      0.9471     49.7190
#   33      0.0388     52.7177
#   34      0.7621     55.6872
#   35      0.0311     58.6380
#   36      0.5447     61.5794
#   37      0.0254     64.5197
#   38      0.4017     67.4664
#   39      0.0197     70.4267
#   40      0.3313     73.4074
#   41      0.0150     76.4155
#   42      0.2799     79.4578
#   43      0.0111     82.5419
#   44      0.2203     85.6753
#   45      0.0076     88.8667
#   46      0.1568     92.1254
#   47      0.0050     95.4621
#   48      0.1231     98.8893
#   49      0.0030    102.4214
#   50      0.1104    106.0759
#   51      0.0016    109.8743
#   52      0.0811    113.8435
#   53      0.0007    118.0187
#   54      0.0433    122.4467
#   55      0.0003    127.1933
#   56      0.0210    132.3559
#   57      0.0001    138.0902
#   58      0.0120    144.6762
#   59      0.0000    152.7271
#   60      0.0087    164.3667
   0    2.34696E+01    1.0000000000000000
   1    1.81242E+01    0.7722442192531712
   2    1.26975E+01    0.5410180184219674
   3    9.27702E+00    0.3952783146183446
   4    7.11000E+00    0.3029453810104976
   5    5.59354E+00    0.2383314913586035
   6    4.61785E+00    0.1967591313913291
   7    3.86748E+00    0.1647869778210015
   8    3.30109E+00    0.1406538637852341
   9    2.87735E+00    0.1225989121944775
  10    2.54072E+00    0.1082558165444649
  11    2.26763E+00    0.0966199927338159
  12    2.13131E+00    0.0908116250078276
  13    1.99306E+00    0.0849211159618934
  14    1.83463E+00    0.0781705537728873
  15    1.65667E+00    0.0705881428685689
  16    1.53935E+00    0.0655893274489207
  17    1.42236E+00    0.0606043100750608
  18    1.35394E+00    0.0576891239358449
  19    1.26590E+00    0.0539378949277675
  20    1.21299E+00    0.0516834331264453
  21    1.11835E+00    0.0476511540887898
  22    1.07446E+00    0.0457809087482749
  23    9.84924E-01    0.0419659690810667
  24    9.70711E-01    0.0413603884861043
  25    8.74088E-01    0.0372434474101438
  26    8.89661E-01    0.0379069809794935
  27    7.67577E-01    0.0327051771964575
  28    8.20599E-01    0.0349643487949534
  29    6.75272E-01    0.0287722382719717
  30    7.57839E-01    0.0322902575541381
  31    6.04622E-01    0.0257619632140808
  32    6.94692E-01    0.0295996911373064
  33    5.15788E-01    0.0219768924419302
  34    6.49287E-01    0.0276650325456773
  35    4.20352E-01    0.0179105032511898
  36    7.10568E-01    0.0302761362106783
  37    3.87759E-01    0.0165217492549269
  38    8.65154E-01    0.0368627629309149
