  # July 4, 2014 09:19:42
 # jmin,jmax    0   50
 # Eau     0.00200000
 # r0,ra,rb,rdel,tol,Bau,mu   3.5000  25.0000  25.0000   4.0000  1.0000E-03  3.0130E-07  6.8548E+03
 # parity bigJ  0  0        1  0        1  1        2  0        2  1        2  2        3  0        3  1        3  2        3  3
 # jmin,jmax,maxlamb are            0          50         100
 # j and jp are          13          44
 # lam  B-lambda(j,jp)  angle
#   31      6.1687     12.9636
#   32      0.0447     22.8969
#   33      2.4848     29.9761
#   34      0.0411     35.9436
#   35      1.6433     41.2977
#   36      0.0313     46.2652
#   37      1.2588     50.9731
#   38      0.0226     55.5016
#   39      1.0215     59.9063
#   40      0.0161     64.2285
#   41      0.7424     68.5011
#   42      0.0110     72.7514
#   43      0.4199     77.0037
#   44      0.0068     81.2809
#   45      0.2271     85.6052
#   46      0.0037     90.0000
#   47      0.1612     94.4905
#   48      0.0020     99.1056
#   49      0.1100    103.8795
#   50      0.0011    108.8549
#   51      0.0652    114.0874
#   52      0.0005    119.6534
#   53      0.0467    125.6648
#   54      0.0002    132.2988
#   55      0.0362    139.8730
#   56      0.0001    149.0821
#   57      0.0290    162.3369
   0    2.08956E+01    1.0000000000000000
   1    1.50042E+01    0.7180543104785628
   2    9.23253E+00    0.4418411197591391
   3    5.73396E+00    0.2744102278860089
   4    4.38756E+00    0.2099752654376994
   5    3.84469E+00    0.1839950850559332
   6    3.43908E+00    0.1645842375586900
   7    2.84442E+00    0.1361254181235369
   8    2.35318E+00    0.1126160143421175
   9    2.00053E+00    0.0957393605589618
  10    1.89284E+00    0.0905854974584884
  11    1.70720E+00    0.0817015849831634
  12    1.55571E+00    0.0744513682629643
  13    1.35167E+00    0.0646868516301122
  14    1.28729E+00    0.0616059327992682
  15    1.15158E+00    0.0551110579749153
  16    1.11981E+00    0.0535906762810327
  17    9.91520E-01    0.0474511493463088
  18    9.84099E-01    0.0470960153196821
  19    8.71028E-01    0.0416847684937751
  20    8.91918E-01    0.0426845034623142
  21    7.73288E-01    0.0370072271413473
  22    8.47456E-01    0.0405567182871763
  23    6.75903E-01    0.0323466732139460
  24    8.76820E-01    0.0419619732158252
  25    7.30699E-01    0.0349690498660785
  26    1.11388E+00    0.0533070297452389
