  # July 4, 2014 09:19:42
 # jmin,jmax    0   50
 # Eau     0.00200000
 # r0,ra,rb,rdel,tol,Bau,mu   3.5000  25.0000  25.0000   4.0000  1.0000E-03  3.0130E-07  6.8548E+03
 # parity bigJ  0  0        1  0        1  1        2  0        2  1        2  2        3  0        3  1        3  2        3  3
 # jmin,jmax,maxlamb are            0          50         100
 # j and jp are          22          49
 # lam  B-lambda(j,jp)  angle
#   27     11.7961      8.9041
#   28      0.5398     15.6769
#   29      5.2788     20.4865
#   30      0.1516     24.5208
#   31      3.5326     28.1192
#   32      0.0778     31.4354
#   33      2.6309     34.5542
#   34      0.0543     37.5282
#   35      2.0768     40.3929
#   36      0.0416     43.1735
#   37      1.6882     45.8887
#   38      0.0309     48.5531
#   39      1.2742     51.1783
#   40      0.0212     53.7739
#   41      0.8176     56.3479
#   42      0.0136     58.9071
#   43      0.4548     61.4577
#   44      0.0082     64.0052
#   45      0.2248     66.5547
#   46      0.0046     69.1109
#   47      0.0937     71.6786
#   48      0.0027     74.2621
#   49      0.0399     76.8661
#   50      0.0016     79.4950
#   51      0.0267     82.1537
#   52      0.0009     84.8471
#   53      0.0176     87.5807
#   54      0.0004     90.3602
#   55      0.0074     93.1921
#   56      0.0001     96.0836
#   57      0.0021     99.0429
#   58      0.0000    102.0793
#   59      0.0007    105.2039
#   60      0.0000    108.4299
#   61      0.0003    111.7730
#   62      0.0000    115.2529
#   63      0.0001    118.8944
#   64      0.0000    122.7298
#   65      0.0000    126.8023
#   66      0.0000    131.1729
#   67      0.0000    135.9314
#   68      0.0000    141.2223
#   69      0.0000    147.3044
#   70      0.0000    154.7456
#   71      0.0000    165.5096
   0    2.90537E+01    1.0000000000000000
   1    2.48359E+01    0.8548254426945163
   2    1.84172E+01    0.6339026235200674
   3    1.23715E+01    0.4258149213075847
   4    8.27522E+00    0.2848247959556869
   5    6.23367E+00    0.2145565418717511
   6    5.44374E+00    0.1873678971946336
   7    5.02056E+00    0.1728025147365007
   8    4.49189E+00    0.1546063592888120
   9    3.83762E+00    0.1320870831545222
  10    3.24640E+00    0.1117376269761296
  11    2.84863E+00    0.0980467805594733
  12    2.61971E+00    0.0901678930551777
  13    2.46107E+00    0.0847073840226008
  14    2.30902E+00    0.0794740995095678
  15    2.15495E+00    0.0741711959266529
  16    2.00688E+00    0.0690747465779761
  17    1.87036E+00    0.0643758539064575
  18    1.75393E+00    0.0603684852498852
  19    1.66492E+00    0.0573050083782488
  20    1.59792E+00    0.0549986529173452
  21    1.53831E+00    0.0529469100895718
  22    1.47690E+00    0.0508335282991534
  23    1.41523E+00    0.0487106783464426
  24    1.35849E+00    0.0467579211461849
  25    1.30859E+00    0.0450403390310376
  26    1.26393E+00    0.0435032677940808
  27    1.22242E+00    0.0420744379578060
  28    1.18316E+00    0.0407230181529461
  29    1.14594E+00    0.0394421916905376
  30    1.11097E+00    0.0382385723334208
  31    1.07782E+00    0.0370973658795761
  32    1.04675E+00    0.0360279758395721
  33    1.01648E+00    0.0349863285241806
  34    9.88054E-01    0.0340078087572451
  35    9.59276E-01    0.0330172860662068
  36    9.32432E-01    0.0320933678958851
  37    9.07381E-01    0.0312311189578807
  38    8.87562E-01    0.0305489845096929
  39    8.75331E-01    0.0301280096470028
  40    8.94181E-01    0.0307768057048824
  41    8.80770E-01    0.0303152090472107
  42    8.99081E-01    0.0309454433515410
  43    8.42154E-01    0.0289860904039296
  44    7.82036E-01    0.0269168787694075
