  # July 4, 2014 09:19:42
 # jmin,jmax    0   50
 # Eau     0.00200000
 # r0,ra,rb,rdel,tol,Bau,mu   3.5000  25.0000  25.0000   4.0000  1.0000E-03  3.0130E-07  6.8548E+03
 # parity bigJ  0  0        1  0        1  1        2  0        2  1        2  2        3  0        3  1        3  2        3  3
 # jmin,jmax,maxlamb are            0          50         100
 # j and jp are          31          45
 # lam  B-lambda(j,jp)  angle
#   14     31.5585      5.6586
#   15      3.3970     10.0489
#   16      9.9143     13.2213
#   17      2.3941     15.9232
#   18      5.5662     18.3649
#   19      1.8567     20.6406
#   20      3.8675     22.8015
#   21      1.4921     24.8790
#   22      3.0838     26.8939
#   23      1.1511     28.8607
#   24      2.4852     30.7902
#   25      0.8990     32.6904
#   26      1.9519     34.5676
#   27      0.7087     36.4269
#   28      1.5537     38.2723
#   29      0.5274     40.1074
#   30      1.2300     41.9351
#   31      0.3451     43.7578
#   32      0.9378     45.5779
#   33      0.1933     47.3974
#   34      0.6923     49.2180
#   35      0.1015     51.0414
#   36      0.5374     52.8693
#   37      0.0606     54.7029
#   38      0.4582     56.5439
#   39      0.0436     58.3936
#   40      0.4090     60.2532
#   41      0.0332     62.1242
#   42      0.3200     64.0079
#   43      0.0249     65.9057
#   44      0.2042     67.8190
#   45      0.0179     69.7491
#   46      0.1433     71.6977
#   47      0.0115     73.6663
#   48      0.1209     75.6565
#   49      0.0061     77.6701
#   50      0.0807     79.7090
#   51      0.0027     81.7751
#   52      0.0373     83.8708
#   53      0.0011     85.9984
#   54      0.0154     88.1604
#   55      0.0004     90.3599
#   56      0.0071     92.5998
#   57      0.0001     94.8839
#   58      0.0027     97.2161
#   59      0.0000     99.6009
#   60      0.0006    102.0436
#   61      0.0000    104.5500
#   62      0.0001    107.1270
#   63      0.0000    109.7828
#   64      0.0000    112.5269
#   65      0.0000    115.3709
#   66      0.0000    118.3291
#   67      0.0000    121.4188
#   68      0.0000    124.6627
#   69      0.0000    128.0897
#   70      0.0000    131.7394
#   71      0.0000    135.6671
#   72      0.0000    139.9547
#   73      0.0000    144.7338
#   74      0.0000    150.2408
#   75      0.0000    156.9931
#   76      0.0000    166.7787
   0    3.94967E+01    1.0000000000000000
   1    3.51169E+01    0.8891100864243403
   2    2.84640E+01    0.7206683496228431
   3    2.20690E+01    0.5587564398137834
   4    1.72716E+01    0.4372930055755381
   5    1.40362E+01    0.3553781588253498
   6    1.18122E+01    0.2990677220188898
   7    1.02250E+01    0.2588829409527419
   8    9.11248E+00    0.2307151287230568
   9    8.31483E+00    0.2105198616452122
  10    7.64215E+00    0.1934885806093629
  11    6.97676E+00    0.1766418851451179
  12    6.30732E+00    0.1596925780631261
  13    5.67162E+00    0.1435975939711109
  14    5.10688E+00    0.1292991315036854
  15    4.63943E+00    0.1174639484590028
  16    4.27344E+00    0.1081976211854133
  17    3.97321E+00    0.1005962074032767
  18    3.68152E+00    0.0932108894540250
  19    3.37447E+00    0.0854368209130270
  20    3.08494E+00    0.0781064297853963
  21    2.85648E+00    0.0723220252956976
  22    2.68711E+00    0.0680337917686787
  23    2.53695E+00    0.0642320695743240
  24    2.38011E+00    0.0602609883060961
  25    2.22543E+00    0.0563447330400437
  26    2.08868E+00    0.0528825435909303
  27    1.96714E+00    0.0498052266395213
  28    1.84870E+00    0.0468065915635765
  29    1.73124E+00    0.0438326736759491
  30    1.62249E+00    0.0410791416681754
  31    1.52702E+00    0.0386619013656100
  32    1.44145E+00    0.0364955569434624
  33    1.36074E+00    0.0344521511893454
  34    1.28373E+00    0.0325023407491770
  35    1.21202E+00    0.0306865496991970
  36    1.14641E+00    0.0290255309057631
  37    1.08585E+00    0.0274921467226496
  38    1.02876E+00    0.0260467131957908
  39    9.74258E-01    0.0246668606101797
  40    9.22470E-01    0.0233556385933571
  41    8.73609E-01    0.0221185531485200
  42    8.27841E-01    0.0209597741661988
  43    7.84646E-01    0.0198661409149484
  44    7.43331E-01    0.0188200901484283
  45    7.03668E-01    0.0178158906656690
  46    6.64754E-01    0.0168306453489098
  47    6.26607E-01    0.0158648169579112
  48    5.94632E-01    0.0150552584458118
  49    5.57654E-01    0.0141190303112933
  50    5.36750E-01    0.0135897613921874
  51    5.14269E-01    0.0130205655964382
  52    4.97336E-01    0.0125918395970514
  53    4.68648E-01    0.0118655122507935
  54    5.16977E-01    0.0130891272607616
  55    4.37866E-01    0.0110861596597168
  56    5.23456E-01    0.0132531745874060
  57    4.42035E-01    0.0111917003450339
  58    5.57752E-01    0.0141214889895758
  59    3.48508E-01    0.0088237355192090
  60    6.52822E-01    0.0165285372203468
  61    2.72623E-01    0.0069024214545488
  62    8.83093E-01    0.0223586810126060
