  # July 4, 2014 09:19:42
 # jmin,jmax    0   50
 # Eau     0.00200000
 # r0,ra,rb,rdel,tol,Bau,mu   3.5000  25.0000  25.0000   4.0000  1.0000E-03  3.0130E-07  6.8548E+03
 # parity bigJ  0  0        1  0        1  1        2  0        2  1        2  2        3  0        3  1        3  2        3  3
 # jmin,jmax,maxlamb are            0          50         100
 # j and jp are          27          44
 # lam  B-lambda(j,jp)  angle
#   17     36.6035      6.7460
#   18      2.4338     11.9401
#   19     14.4448     15.6697
#   20      1.7151     18.8287
#   21      8.7064     21.6704
#   22      1.1961     24.3085
#   23      6.0084     26.8054
#   24      0.8481     29.1995
#   25      4.1715     31.5161
#   26      0.6205     33.7735
#   27      2.9611     35.9847
#   28      0.4583     38.1601
#   29      2.1490     40.3074
#   30      0.3389     42.4332
#   31      1.6343     44.5428
#   32      0.2415     46.6407
#   33      1.3667     48.7307
#   34      0.1613     50.8163
#   35      1.1394     52.9004
#   36      0.1012     54.9859
#   37      0.9832     57.0753
#   38      0.0614     59.1711
#   39      0.8872     61.2754
#   40      0.0390     63.3906
#   41      0.6578     65.5188
#   42      0.0269     67.6622
#   43      0.3706     69.8231
#   44      0.0180     72.0036
#   45      0.2064     74.2062
#   46      0.0105     76.4332
#   47      0.1280     78.6873
#   48      0.0058     80.9712
#   49      0.0709     83.2879
#   50      0.0034     85.6406
#   51      0.0426     88.0327
#   52      0.0018     90.4683
#   53      0.0293     92.9516
#   54      0.0007     95.4876
#   55      0.0151     98.0816
#   56      0.0002    100.7401
#   57      0.0052    103.4705
#   58      0.0001    106.2811
#   59      0.0017    109.1822
#   60      0.0000    112.1860
#   61      0.0007    115.3073
#   62      0.0000    118.5645
#   63      0.0002    121.9812
#   64      0.0000    125.5879
#   65      0.0001    129.4258
#   66      0.0000    133.5529
#   67      0.0000    138.0549
#   68      0.0000    143.0695
#   69      0.0000    148.8441
#   70      0.0000    155.9200
#   71      0.0000    166.1698
   0    5.63349E+01    1.0000000000000000
   1    4.93546E+01    0.8760930231305797
   2    3.90679E+01    0.6934939458556295
   3    2.96700E+01    0.5266721309440986
   4    2.30722E+01    0.4095539732967943
   5    1.88226E+01    0.3341205096563671
   6    1.57348E+01    0.2793090918359871
   7    1.31279E+01    0.2330329334946410
   8    1.09662E+01    0.1946615939116362
   9    9.41512E+00    0.1671276852577990
  10    8.44592E+00    0.1499235137429138
  11    7.78862E+00    0.1382556892532076
  12    7.16872E+00    0.1272518388240112
  13    6.51582E+00    0.1156623392438760
  14    5.92104E+00    0.1051043759598105
  15    5.45794E+00    0.0968837603544099
  16    5.10068E+00    0.0905421369808645
  17    4.77742E+00    0.0848038507119310
  18    4.44791E+00    0.0789548715144211
  19    4.13163E+00    0.0733405025303199
  20    3.87480E+00    0.0687815409818836
  21    3.68792E+00    0.0654641955916540
  22    3.52685E+00    0.0626049927428039
  23    3.34688E+00    0.0594103550948437
  24    3.15506E+00    0.0560054158501406
  25    2.98922E+00    0.0530615857201346
  26    2.86302E+00    0.0508215159390445
  27    2.75427E+00    0.0488911012608451
  28    2.63845E+00    0.0468350716712234
  29    2.51288E+00    0.0446060454193863
  30    2.38962E+00    0.0424180670812118
  31    2.27728E+00    0.0404239849008591
  32    2.17667E+00    0.0386381236362269
  33    2.08369E+00    0.0369874925487346
  34    1.99702E+00    0.0354491445074952
  35    1.91457E+00    0.0339855195419094
  36    1.83888E+00    0.0326419025721487
  37    1.76749E+00    0.0313747756897219
  38    1.70361E+00    0.0302406816089518
  39    1.64398E+00    0.0291822913266432
  40    1.59097E+00    0.0282412835848602
  41    1.53777E+00    0.0272969291721652
  42    1.49795E+00    0.0265900664869453
  43    1.43259E+00    0.0254298179339976
  44    1.40585E+00    0.0249552684404567
  45    1.32742E+00    0.0235630045858002
  46    1.28602E+00    0.0228280572509017
  47    1.20167E+00    0.0213308316751464
  48    1.23586E+00    0.0219376844704624
  49    1.09718E+00    0.0194759963231633
  50    1.08345E+00    0.0192323053566945
  51    8.93776E-01    0.0158654135004367
  52    1.15978E+00    0.0205872908756143
  53    4.60578E-01    0.0081757104435296
  54    1.56178E+00    0.0277231472407997
