  # July 4, 2014 09:19:42
 # jmin,jmax    0   50
 # Eau     0.00200000
 # r0,ra,rb,rdel,tol,Bau,mu   3.5000  25.0000  25.0000   4.0000  1.0000E-03  3.0130E-07  6.8548E+03
 # parity bigJ  0  0        1  0        1  1        2  0        2  1        2  2        3  0        3  1        3  2        3  3
 # jmin,jmax,maxlamb are            0          50         100
 # j and jp are          28          36
 # lam  B-lambda(j,jp)  angle
#    8    128.6370      5.0220
#    9      8.4938      9.0661
#   10     37.9644     12.0703
#   11      4.0654     14.6894
#   12     17.3444     17.1033
#   13      2.3127     19.3908
#   14      9.7686     21.5941
#   15      1.4569     23.7386
#   16      6.0484     25.8411
#   17      1.0401     27.9129
#   18      4.0634     29.9625
#   19      0.7709     31.9962
#   20      3.0448     34.0190
#   21      0.5605     36.0348
#   22      2.2520     38.0470
#   23      0.3938     40.0583
#   24      1.6977     42.0712
#   25      0.2538     44.0878
#   26      1.4366     46.1101
#   27      0.1538     48.1400
#   28      1.2049     50.1791
#   29      0.1032     52.2292
#   30      0.9307     54.2917
#   31      0.0802     56.3684
#   32      0.7803     58.4609
#   33      0.0629     60.5707
#   34      0.6601     62.6995
#   35      0.0487     64.8491
#   36      0.4910     67.0214
#   37      0.0387     69.2182
#   38      0.3750     71.4416
#   39      0.0306     73.6938
#   40      0.3180     75.9771
#   41      0.0235     78.2942
#   42      0.2760     80.6479
#   43      0.0174     83.0412
#   44      0.2206     85.4777
#   45      0.0122     87.9611
#   46      0.1567     90.4958
#   47      0.0082     93.0867
#   48      0.1214     95.7392
#   49      0.0051     98.4599
#   50      0.1072    101.2560
#   51      0.0027    104.1365
#   52      0.0770    107.1115
#   53      0.0012    110.1937
#   54      0.0394    113.3982
#   55      0.0005    116.7439
#   56      0.0179    120.2550
#   57      0.0002    123.9630
#   58      0.0089    127.9103
#   59      0.0000    132.1566
#   60      0.0038    136.7902
#   61      0.0000    141.9530
#   62      0.0012    147.9000
#   63      0.0000    155.1893
#   64      0.0004    165.7516
   0    8.32242E+01    1.0000000000000000
   1    7.53687E+01    0.9056097412066190
   2    6.52430E+01    0.7839427635853444
   3    5.67672E+01    0.6821000193136167
   4    4.99914E+01    0.6006832313337538
   5    4.42040E+01    0.5311436184299571
   6    3.92623E+01    0.4717653249579585
   7    3.49990E+01    0.4205391194588136
   8    3.12334E+01    0.3752923027229002
   9    2.79529E+01    0.3358746327049794
  10    2.51224E+01    0.3018640416579377
  11    2.26490E+01    0.2721443946228770
  12    2.05061E+01    0.2463954917369718
  13    1.86380E+01    0.2239497876785022
  14    1.69608E+01    0.2037964676705629
  15    1.54873E+01    0.1860914047274813
  16    1.42533E+01    0.1712644106878613
  17    1.31833E+01    0.1584065389390311
  18    1.22108E+01    0.1467213076487283
  19    1.13463E+01    0.1363341727051892
  20    1.06094E+01    0.1274795740465710
  21    9.95820E+00    0.1196550932099052
  22    9.36345E+00    0.1125087053014096
  23    8.79801E+00    0.1057145205024611
  24    8.27742E+00    0.0994592510055258
  25    7.80033E+00    0.0937266815233452
  26    7.40034E+00    0.0889205637153580
  27    7.04278E+00    0.0846241503309966
  28    6.73055E+00    0.0808724336972859
  29    6.40994E+00    0.0770200853225298
  30    6.11808E+00    0.0735132048643714
  31    5.81624E+00    0.0698863567574962
  32    5.56122E+00    0.0668220919455116
  33    5.28261E+00    0.0634744796070552
  34    5.06532E+00    0.0608635369176678
  35    4.78606E+00    0.0575080502861317
  36    4.61380E+00    0.0554381903956354
  37    4.32463E+00    0.0519635897756550
  38    4.19818E+00    0.0504441675730047
  39    3.90150E+00    0.0468793936610031
  40    3.79847E+00    0.0456413433393952
  41    3.50623E+00    0.0421299062314947
  42    3.42010E+00    0.0410950578678133
  43    3.11402E+00    0.0374172378283092
  44    3.07732E+00    0.0369762810626312
  45    2.74524E+00    0.0329861158181520
  46    2.78525E+00    0.0334668423121089
  47    2.39310E+00    0.0287548546541134
  48    2.51315E+00    0.0301973750737673
  49    2.13596E+00    0.0256651804738382
  50    2.27895E+00    0.0273832358696824
  51    1.73226E+00    0.0208143257392608
  52    2.03640E+00    0.0244688333457224
  53    1.36083E+00    0.0163513556186669
  54    1.96740E+00    0.0236398102243948
  55    9.05146E-01    0.0108759922223774
  56    2.16495E+00    0.0260134584174379
