  # July 4, 2014 09:19:42
 # jmin,jmax    0   50
 # Eau     0.00200000
 # r0,ra,rb,rdel,tol,Bau,mu   3.5000  25.0000  25.0000   4.0000  1.0000E-03  3.0130E-07  6.8548E+03
 # parity bigJ  0  0        1  0        1  1        2  0        2  1        2  2        3  0        3  1        3  2        3  3
 # jmin,jmax,maxlamb are            0          50         100
 # j and jp are          21          49
 # lam  B-lambda(j,jp)  angle
#   28      6.1150      9.2745
#   29      0.1613     16.3277
#   30      2.7300     21.3346
#   31      0.0852     25.5335
#   32      1.7646     29.2781
#   33      0.0465     32.7289
#   34      1.1796     35.9743
#   35      0.0344     39.0694
#   36      0.8575     42.0513
#   37      0.0282     44.9464
#   38      0.6952     47.7745
#   39      0.0226     50.5508
#   40      0.5617     53.2878
#   41      0.0171     55.9954
#   42      0.4020     58.6824
#   43      0.0121     61.3561
#   44      0.2571     64.0232
#   45      0.0083     66.6897
#   46      0.1717     69.3613
#   47      0.0052     72.0433
#   48      0.1172     74.7411
#   49      0.0027     77.4598
#   50      0.0641     80.2048
#   51      0.0012     82.9814
#   52      0.0260     85.7956
#   53      0.0005     88.6535
#   54      0.0103     91.5620
#   55      0.0002     94.5285
#   56      0.0052     97.5615
#   57      0.0001    100.6708
#   58      0.0022    103.8678
#   59      0.0000    107.1658
#   60      0.0006    110.5812
#   61      0.0000    114.1339
#   62      0.0001    117.8492
#   63      0.0000    121.7599
#   64      0.0000    125.9102
#   65      0.0000    130.3618
#   66      0.0000    135.2063
#   67      0.0000    140.5900
#   68      0.0000    146.7764
#   69      0.0000    154.3419
#   70      0.0000    165.2822
   0    1.52803E+01    1.0000000000000000
   1    1.27997E+01    0.8376629435489030
   2    9.27121E+00    0.6067434867356262
   3    6.29001E+00    0.4116423266323260
   4    4.49724E+00    0.2943165244097418
   5    3.59446E+00    0.2352348122255310
   6    3.05086E+00    0.1996600059916493
   7    2.59229E+00    0.1696494407759902
   8    2.19490E+00    0.1436428793145601
   9    1.89121E+00    0.1237681388235793
  10    1.67696E+00    0.1097469628109942
  11    1.53153E+00    0.1002292542008892
  12    1.43910E+00    0.0941799870895029
  13    1.37302E+00    0.0898553979394285
  14    1.29623E+00    0.0848300113306203
  15    1.19531E+00    0.0782253858853162
  16    1.09322E+00    0.0715447109117058
  17    1.01617E+00    0.0665023104676071
  18    9.63740E-01    0.0630708086996282
  19    9.19061E-01    0.0601468425645068
  20    8.73152E-01    0.0571423599778386
  21    8.29122E-01    0.0542608810245296
  22    7.91260E-01    0.0517830939995752
  23    7.58886E-01    0.0496643659809358
  24    7.29257E-01    0.0477253260294503
  25    7.00881E-01    0.0458683224242072
  26    6.73771E-01    0.0440941287120134
  27    6.47902E-01    0.0424011400530430
  28    6.22910E-01    0.0407655785545043
  29    5.98098E-01    0.0391417897764888
  30    5.72948E-01    0.0374959143417058
  31    5.47068E-01    0.0358022328353708
  32    5.20633E-01    0.0340721972550900
  33    4.93068E-01    0.0322682651655001
  34    4.67328E-01    0.0305836979741303
  35    4.38516E-01    0.0286981251574647
  36    4.18912E-01    0.0274152248400401
  37    3.91787E-01    0.0256400544413847
  38    3.80618E-01    0.0249090675833557
  39    3.76872E-01    0.0246639412713839
  40    4.14130E-01    0.0271022397473676
  41    3.42739E-01    0.0224301570779781
  42    4.72074E-01    0.0308943050002638
