  # July 4, 2014 09:19:42
 # jmin,jmax    0   50
 # Eau     0.00200000
 # r0,ra,rb,rdel,tol,Bau,mu   3.5000  25.0000  25.0000   4.0000  1.0000E-03  3.0130E-07  6.8548E+03
 # parity bigJ  0  0        1  0        1  1        2  0        2  1        2  2        3  0        3  1        3  2        3  3
 # jmin,jmax,maxlamb are            0          50         100
 # j and jp are          26          29
 # lam  B-lambda(j,jp)  angle
#    3    321.7600      3.5488
#    4      3.2672      6.8007
#    5     99.7775      9.4021
#    6      2.0418     11.7941
#    7     53.0114     14.0860
#    8      1.5108     16.3226
#    9     33.3336     18.5262
#   10      1.0195     20.7100
#   11     22.2721     22.8821
#   12      0.7277     25.0482
#   13     15.2451     27.2124
#   14      0.5891     29.3779
#   15     10.7442     31.5473
#   16      0.4775     33.7226
#   17      7.7787     35.9058
#   18      0.3743     38.0986
#   19      5.8208     40.3027
#   20      0.2942     42.5197
#   21      4.4008     44.7509
#   22      0.2339     46.9981
#   23      3.3215     49.2627
#   24      0.1831     51.5463
#   25      2.6033     53.8506
#   26      0.1419     56.1774
#   27      2.0327     58.5285
#   28      0.1114     60.9059
#   29      1.6385     63.3117
#   30      0.0880     65.7481
#   31      1.3661     68.2176
#   32      0.0690     70.7230
#   33      1.1215     73.2672
#   34      0.0535     75.8535
#   35      0.9412     78.4855
#   36      0.0409     81.1672
#   37      0.8161     83.9033
#   38      0.0306     86.6990
#   39      0.7285     89.5601
#   40      0.0218     92.4935
#   41      0.6512     95.5071
#   42      0.0145     98.6103
#   43      0.5081    101.8140
#   44      0.0090    105.1316
#   45      0.3333    108.5794
#   46      0.0056    112.1777
#   47      0.2275    115.9522
#   48      0.0033    119.9366
#   49      0.1757    124.1763
#   50      0.0018    128.7351
#   51      0.1255    133.7077
#   52      0.0009    139.2460
#   53      0.0944    145.6227
#   54      0.0004    153.4360
#   55      0.1192    164.7556
   0    1.43224E+02    1.0000000000000000
   1    1.22022E+02    0.8519690073744267
   2    1.00776E+02    0.7036252802394050
   3    8.46878E+01    0.5912964025869368
   4    7.25051E+01    0.5062358861267078
   5    6.20004E+01    0.4328914902464335
   6    5.42353E+01    0.3786749785004636
   7    4.81218E+01    0.3359902485178970
   8    4.33228E+01    0.3024833013562868
   9    3.90434E+01    0.2726040916598416
  10    3.58328E+01    0.2501873862446795
  11    3.29736E+01    0.2302239235392864
  12    3.05980E+01    0.2136376727392602
  13    2.84083E+01    0.1983491963506340
  14    2.67524E+01    0.1867872202860134
  15    2.50764E+01    0.1750851893206511
  16    2.37278E+01    0.1656694960117638
  17    2.23499E+01    0.1560483602756741
  18    2.12736E+01    0.1485337038805662
  19    2.00926E+01    0.1402877965584137
  20    1.92209E+01    0.1342015248585066
  21    1.82019E+01    0.1270870712730339
  22    1.74949E+01    0.1221505480827141
  23    1.65986E+01    0.1158927684794820
  24    1.60655E+01    0.1121703730223026
  25    1.52742E+01    0.1066453499233734
  26    1.48495E+01    0.1036801118096135
  27    1.41142E+01    0.0985466879395723
  28    1.37951E+01    0.0963186706720922
  29    1.31354E+01    0.0917120474690095
  30    1.29404E+01    0.0903510380929185
  31    1.22933E+01    0.0858328431463661
  32    1.22319E+01    0.0854037628552306
  33    1.15168E+01    0.0804114611754188
  34    1.16330E+01    0.0812223522735371
  35    1.08347E+01    0.0756487975979113
  36    1.11186E+01    0.0776309775490300
  37    1.02642E+01    0.0716656506514397
  38    1.06666E+01    0.0744749332107581
  39    9.76028E+00    0.0681469874816756
  40    1.02784E+01    0.0717648881029591
  41    9.35167E+00    0.0652940608778795
  42    9.98959E+00    0.0697480919664553
  43    8.92459E+00    0.0623121807573861
  44    9.77994E+00    0.0682842481654584
  45    8.54887E+00    0.0596888459879341
  46    9.72619E+00    0.0679089924259616
  47    8.17403E+00    0.0570716744780681
  48    9.90366E+00    0.0691480659986743
  49    7.75572E+00    0.0541509950372451
  50    1.08160E+01    0.0755182795648890
  51    7.07927E+00    0.0494279904088275
  52    1.44222E+01    0.1006971331120649
