  # July 4, 2014 09:19:42
 # jmin,jmax    0   50
 # Eau     0.00200000
 # r0,ra,rb,rdel,tol,Bau,mu   3.5000  25.0000  25.0000   4.0000  1.0000E-03  3.0130E-07  6.8548E+03
 # parity bigJ  0  0        1  0        1  1        2  0        2  1        2  2        3  0        3  1        3  2        3  3
 # jmin,jmax,maxlamb are            0          50         100
 # j and jp are          18          38
 # lam  B-lambda(j,jp)  angle
#   20     10.6116      9.5806
#   21      0.6221     16.9509
#   22      4.0587     22.2330
#   23      0.4269     26.7032
#   24      2.5374     30.7243
#   25      0.2796     34.4602
#   26      1.9351     38.0011
#   27      0.1766     41.4032
#   28      1.5392     44.7045
#   29      0.1075     47.9322
#   30      1.1482     51.1068
#   31      0.0675     54.2445
#   32      0.8690     57.3586
#   33      0.0450     60.4603
#   34      0.6872     63.5595
#   35      0.0303     66.6650
#   36      0.5051     69.7853
#   37      0.0213     72.9283
#   38      0.3776     76.1021
#   39      0.0160     79.3149
#   40      0.3136     82.5751
#   41      0.0121     85.8920
#   42      0.2748     89.2757
#   43      0.0088     92.7373
#   44      0.2333     96.2900
#   45      0.0061     99.9489
#   46      0.1761    103.7321
#   47      0.0041    107.6620
#   48      0.1337    111.7664
#   49      0.0025    116.0816
#   50      0.1236    120.6560
#   51      0.0013    125.5574
#   52      0.1092    130.8862
#   53      0.0005    136.8030
#   54      0.0764    143.5962
#   55      0.0002    151.8979
#   56      0.0632    163.8979
   0    2.62869E+01    1.0000000000000000
   1    1.87444E+01    0.7130687874221833
   2    1.28165E+01    0.4875608437235508
   3    8.96176E+00    0.3409210686929015
   4    6.70811E+00    0.2551883521517693
   5    5.29469E+00    0.2014190607009362
   6    4.53970E+00    0.1726980733394012
   7    3.90589E+00    0.1485869939635873
   8    3.50092E+00    0.1331812744541511
   9    2.94921E+00    0.1121932242751244
  10    2.65814E+00    0.1011204273945363
  11    2.32669E+00    0.0885112596089026
  12    2.12712E+00    0.0809193674939678
  13    1.83156E+00    0.0696758554774794
  14    1.75140E+00    0.0666264394044644
  15    1.55438E+00    0.0591313378453378
  16    1.53999E+00    0.0585838308675486
  17    1.34450E+00    0.0511471634774666
  18    1.33871E+00    0.0509268492127062
  19    1.12786E+00    0.0429058864316443
  20    1.16329E+00    0.0442535179869345
  21    9.72818E-01    0.0370077003473489
  22    1.04023E+00    0.0395723274948860
  23    8.51621E-01    0.0323971296319362
  24    9.28087E-01    0.0353060420095776
  25    7.48929E-01    0.0284905576336243
  26    8.42739E-01    0.0320592414541261
  27    6.63680E-01    0.0252475294497101
  28    7.95467E-01    0.0302609335312122
  29    5.84844E-01    0.0222484689404879
  30    7.89027E-01    0.0300159545364574
  31    5.43961E-01    0.0206932107382038
  32    8.40910E-01    0.0319896722201686
  33    5.28410E-01    0.0201016225181115
  34    8.69289E-01    0.0330692768560942
  35    4.64056E-01    0.0176535060094159
  36    1.12226E+00    0.0426927293795154
