  # July 4, 2014 09:19:42
 # jmin,jmax    0   50
 # Eau     0.00200000
 # r0,ra,rb,rdel,tol,Bau,mu   3.5000  25.0000  25.0000   4.0000  1.0000E-03  3.0130E-07  6.8548E+03
 # parity bigJ  0  0        1  0        1  1        2  0        2  1        2  2        3  0        3  1        3  2        3  3
 # jmin,jmax,maxlamb are            0          50         100
 # j and jp are          19          25
 # lam  B-lambda(j,jp)  angle
#    6    203.6676      6.2891
#    7      2.7883     11.5079
#    8     49.1829     15.4636
#    9      1.1003     18.9696
#   10     20.4568     22.2455
#   11      0.5005     25.3864
#   12     10.3933     28.4430
#   13      0.2638     31.4458
#   14      6.0320     34.4151
#   15      0.1631     37.3652
#   16      3.9138     40.3070
#   17      0.1108     43.2490
#   18      2.7644     46.1982
#   19      0.0812     49.1610
#   20      2.0477     52.1430
#   21      0.0636     55.1494
#   22      1.6695     58.1854
#   23      0.0520     61.2562
#   24      1.3354     64.3671
#   25      0.0433     67.5237
#   26      1.1189     70.7321
#   27      0.0360     73.9987
#   28      0.9829     77.3309
#   29      0.0294     80.7369
#   30      0.8438     84.2260
#   31      0.0236     87.8090
#   32      0.7162     91.4989
#   33      0.0186     95.3107
#   34      0.6667     99.2631
#   35      0.0141    103.3791
#   36      0.5902    107.6877
#   37      0.0103    112.2270
#   38      0.4572    117.0480
#   39      0.0073    122.2225
#   40      0.3987    127.8570
#   41      0.0048    134.1221
#   42      0.4387    141.3246
#   43      0.0026    150.1371
#   44      0.7198    162.8920
   0    1.20759E+02    1.0000000000000000
   1    1.00342E+02    0.8309224793474468
   2    8.98737E+01    0.7442390522732052
   3    7.83433E+01    0.6487565611730999
   4    7.09049E+01    0.5871593284742055
   5    6.16914E+01    0.5108630091980616
   6    5.55439E+01    0.4599556530693572
   7    4.86603E+01    0.4029528338346400
   8    4.39231E+01    0.3637247482701763
   9    3.87089E+01    0.3205463694714547
  10    3.53532E+01    0.2927580693529055
  11    3.13416E+01    0.2595381286130721
  12    2.88816E+01    0.2391666617902275
  13    2.58620E+01    0.2141616125832370
  14    2.40404E+01    0.1990770367114498
  15    2.15989E+01    0.1788589458645813
  16    2.02892E+01    0.1680135515942604
  17    1.83424E+01    0.1518919688528751
  18    1.73400E+01    0.1435918833038873
  19    1.56782E+01    0.1298300772374151
  20    1.49254E+01    0.1235963382624041
  21    1.34873E+01    0.1116877674846725
  22    1.29814E+01    0.1074984810213393
  23    1.16527E+01    0.0964956700189122
  24    1.13623E+01    0.0940905911584326
  25    1.00399E+01    0.0831395541438716
  26    9.93229E+00    0.0822487143187635
  27    8.66027E+00    0.0717151783257643
  28    8.68661E+00    0.0719332807253978
  29    7.44257E+00    0.0616315135170070
  30    7.56637E+00    0.0626566520793072
  31    6.25885E+00    0.0518291285771936
  32    6.58210E+00    0.0545059806534254
  33    5.18964E+00    0.0429751311580632
  34    5.67418E+00    0.0469875126282972
  35    4.07941E+00    0.0337813186033047
  36    4.90554E+00    0.0406224739287488
  37    2.87337E+00    0.0237941649193965
  38    4.73247E+00    0.0391892742615291
