  # July 4, 2014 09:19:42
 # jmin,jmax    0   50
 # Eau     0.00200000
 # r0,ra,rb,rdel,tol,Bau,mu   3.5000  25.0000  25.0000   4.0000  1.0000E-03  3.0130E-07  6.8548E+03
 # parity bigJ  0  0        1  0        1  1        2  0        2  1        2  2        3  0        3  1        3  2        3  3
 # jmin,jmax,maxlamb are            0          50         100
 # j and jp are          22          29
 # lam  B-lambda(j,jp)  angle
#    7    109.4980      5.8799
#    8      0.8959     10.6788
#    9     41.9723     14.2766
#   10      0.7191     17.4374
#   11     24.7772     20.3697
#   12      0.5247     23.1644
#   13     16.0070     25.8700
#   14      0.4130     28.5157
#   15     11.0155     31.1209
#   16      0.3428     33.6990
#   17      7.8296     36.2600
#   18      0.2792     38.8115
#   19      5.7367     41.3597
#   20      0.2213     43.9098
#   21      4.3157     46.4663
#   22      0.1726     49.0331
#   23      3.2635     51.6139
#   24      0.1355     54.2121
#   25      2.5691     56.8313
#   26      0.1083     59.4746
#   27      2.0155     62.1456
#   28      0.0861     64.8478
#   29      1.6185     67.5847
#   30      0.0678     70.3605
#   31      1.3560     73.1792
#   32      0.0529     76.0456
#   33      1.1246     78.9648
#   34      0.0409     81.9424
#   35      0.9509     84.9850
#   36      0.0312     88.0998
#   37      0.8349     91.2954
#   38      0.0231     94.5817
#   39      0.7548     97.9703
#   40      0.0164    101.4754
#   41      0.6944    105.1141
#   42      0.0107    108.9076
#   43      0.5771    112.8831
#   44      0.0065    117.0758
#   45      0.4052    121.5331
#   46      0.0038    126.3219
#   47      0.2912    131.5413
#   48      0.0021    137.3498
#   49      0.2628    144.0330
#   50      0.0009    152.2164
#   51      0.3269    164.0665
   0    1.10027E+02    1.0000000000000000
   1    8.52945E+01    0.7752170916065613
   2    6.64879E+01    0.6042894323877420
   3    5.25756E+01    0.4778440777741120
   4    4.28294E+01    0.3892636564611014
   5    3.44791E+01    0.3133710274785607
   6    2.95342E+01    0.2684278951020194
   7    2.50669E+01    0.2278259365066446
   8    2.20652E+01    0.2005441941748453
   9    1.93302E+01    0.1756867175736917
  10    1.76742E+01    0.1606358017606684
  11    1.57043E+01    0.1427314832411535
  12    1.46634E+01    0.1332711069370470
  13    1.32985E+01    0.1208666024127696
  14    1.26090E+01    0.1145992147649474
  15    1.15274E+01    0.1047696634243643
  16    1.10807E+01    0.1007090322913946
  17    1.01905E+01    0.0926189641427214
  18    9.90707E+00    0.0900425215195503
  19    9.14077E+00    0.0830778453307087
  20    8.95006E+00    0.0813444856468769
  21    8.24286E+00    0.0749169569492007
  22    8.18382E+00    0.0743804099626125
  23    7.51308E+00    0.0682841943251717
  24    7.56987E+00    0.0688003621918964
  25    6.84373E+00    0.0622007112570647
  26    7.04470E+00    0.0640272752097826
  27    6.26979E+00    0.0569842887879113
  28    6.63841E+00    0.0603346322879542
  29    5.81879E+00    0.0528852785169433
  30    6.29714E+00    0.0572328763004661
  31    5.44100E+00    0.0494516943290178
  32    6.00029E+00    0.0545349536571701
  33    5.11161E+00    0.0464579331098678
  34    5.76411E+00    0.0523883312708869
  35    4.83647E+00    0.0439573073949563
  36    5.56840E+00    0.0506096292899235
  37    4.50058E+00    0.0409044535793594
  38    5.43374E+00    0.0493857308347581
  39    4.17855E+00    0.0379776092137415
  40    5.38580E+00    0.0489500064536959
  41    3.76783E+00    0.0342447592360723
  42    5.54563E+00    0.0504026311530676
  43    3.11635E+00    0.0283236322817601
  44    6.83921E+00    0.0621595715288475
