  # July 4, 2014 09:19:42
 # jmin,jmax    0   50
 # Eau     0.00200000
 # r0,ra,rb,rdel,tol,Bau,mu   3.5000  25.0000  25.0000   4.0000  1.0000E-03  3.0130E-07  6.8548E+03
 # parity bigJ  0  0        1  0        1  1        2  0        2  1        2  2        3  0        3  1        3  2        3  3
 # jmin,jmax,maxlamb are            0          50         100
 # j and jp are          13          47
 # lam  B-lambda(j,jp)  angle
#   34      3.1990     13.1390
#   35      0.0089     23.1906
#   36      1.2786     30.3428
#   37      0.0085     36.3631
#   38      0.7538     41.7573
#   39      0.0069     46.7559
#   40      0.5044     51.4876
#   41      0.0055     56.0341
#   42      0.3511     60.4520
#   43      0.0041     64.7831
#   44      0.2434     69.0606
#   45      0.0028     73.3124
#   46      0.1885     77.5631
#   47      0.0019     81.8355
#   48      0.1643     86.1522
#   49      0.0012     90.5365
#   50      0.1236     95.0137
#   51      0.0006     99.6126
#   52      0.0690    104.3673
#   53      0.0003    109.3204
#   54      0.0314    114.5270
#   55      0.0001    120.0633
#   56      0.0151    126.0400
#   57      0.0000    132.6334
#   58      0.0080    140.1586
#   59      0.0000    149.3050
#   60      0.0047    162.4651
   0    1.04171E+01    1.0000000000000000
   1    7.63993E+00    0.7334015568822425
   2    4.92637E+00    0.4729108182288518
   3    3.46795E+00    0.3329087527020500
   4    2.69331E+00    0.2585464428102779
   5    2.07616E+00    0.1993029087473157
   6    1.68566E+00    0.1618167585780952
   7    1.48054E+00    0.1421258430280755
   8    1.31303E+00    0.1260451521486553
   9    1.12326E+00    0.1078286596219691
  10    1.00091E+00    0.0960833721353643
  11    9.14420E-01    0.0877804883241175
  12    8.47844E-01    0.0813894287482068
  13    7.62464E-01    0.0731933543096213
  14    7.05526E-01    0.0677275005998762
  15    6.38701E-01    0.0613126220605297
  16    6.02120E-01    0.0578009830672595
  17    5.41528E-01    0.0519844658484432
  18    5.17127E-01    0.0496420623686561
  19    4.57955E-01    0.0439618049949745
  20    4.49299E-01    0.0431308500927460
  21    3.82572E-01    0.0367252886099916
  22    4.05482E-01    0.0389246126160780
  23    3.01473E-01    0.0289401856425832
  24    4.13730E-01    0.0397163855406796
  25    1.93830E-01    0.0186068618834907
  26    4.52850E-01    0.0434716760514366
