  # July 4, 2014 09:19:42
 # jmin,jmax    0   50
 # Eau     0.00200000
 # r0,ra,rb,rdel,tol,Bau,mu   3.5000  25.0000  25.0000   4.0000  1.0000E-03  3.0130E-07  6.8548E+03
 # parity bigJ  0  0        1  0        1  1        2  0        2  1        2  2        3  0        3  1        3  2        3  3
 # jmin,jmax,maxlamb are            0          50         100
 # j and jp are          20          48
 # lam  B-lambda(j,jp)  angle
#   28      5.2470      9.5941
#   29      0.0616     16.8957
#   30      2.1912     22.0813
#   31      0.0599     26.4323
#   32      1.4176     30.3149
#   33      0.0446     33.8949
#   34      1.0053     37.2640
#   35      0.0366     40.4795
#   36      0.7314     43.5796
#   37      0.0287     46.5918
#   38      0.5592     49.5369
#   39      0.0214     52.4309
#   40      0.4486     55.2865
#   41      0.0148     58.1146
#   42      0.3536     60.9244
#   43      0.0092     63.7237
#   44      0.2799     66.5199
#   45      0.0059     69.3197
#   46      0.2480     72.1292
#   47      0.0041     74.9547
#   48      0.2105     77.8021
#   49      0.0025     80.6777
#   50      0.1355     83.5878
#   51      0.0012     86.5391
#   52      0.0633     89.5388
#   53      0.0005     92.5950
#   54      0.0254     95.7166
#   55      0.0002     98.9136
#   56      0.0109    102.1979
#   57      0.0001    105.5833
#   58      0.0043    109.0864
#   59      0.0000    112.7280
#   60      0.0012    116.5337
#   61      0.0000    120.5373
#   62      0.0002    124.7836
#   63      0.0000    129.3359
#   64      0.0000    134.2874
#   65      0.0000    139.7877
#   66      0.0000    146.1051
#   67      0.0000    153.8279
#   68      0.0000    164.9922
   0    1.38079E+01    1.0000000000000000
   1    1.09841E+01    0.7954973619334902
   2    7.43213E+00    0.5382531585108719
   3    5.01590E+00    0.3632640512104965
   4    3.87578E+00    0.2806935070407709
   5    3.21622E+00    0.2329266829231776
   6    2.60803E+00    0.1888797510723897
   7    2.14590E+00    0.1554111385279343
   8    1.90798E+00    0.1381809456772348
   9    1.75830E+00    0.1273404564642301
  10    1.57485E+00    0.1140545019974840
  11    1.39126E+00    0.1007585347299439
  12    1.27477E+00    0.0923222440128001
  13    1.20174E+00    0.0870329779259360
  14    1.11274E+00    0.0805875044102847
  15    1.00758E+00    0.0729712848790350
  16    9.25239E-01    0.0670081070899996
  17    8.74520E-01    0.0633349514712856
  18    8.31860E-01    0.0602453537627445
  19    7.82448E-01    0.0566668587033280
  20    7.32529E-01    0.0530516131882378
  21    6.90239E-01    0.0499888288658359
  22    6.55241E-01    0.0474541713644277
  23    6.23368E-01    0.0451458385680206
  24    5.93269E-01    0.0429660131822122
  25    5.65267E-01    0.0409380490636015
  26    5.40140E-01    0.0391183121428475
  27    5.17042E-01    0.0374454785543079
  28    4.96309E-01    0.0359439483699842
  29    4.75574E-01    0.0344422961953495
  30    4.58069E-01    0.0331744863268285
  31    4.36541E-01    0.0316153915711284
  32    4.23448E-01    0.0306671641257655
  33    3.97607E-01    0.0287956825170768
  34    3.90021E-01    0.0282463048768522
  35    3.59003E-01    0.0259998985715041
  36    3.54234E-01    0.0256545278751524
  37    2.96507E-01    0.0214738006962077
  38    4.10283E-01    0.0297137393314641
  39    1.91834E-01    0.0138930716344276
  40    5.34215E-01    0.0386891729662691
