  # July 4, 2014 09:19:42
 # jmin,jmax    0   50
 # Eau     0.00200000
 # r0,ra,rb,rdel,tol,Bau,mu   3.5000  25.0000  25.0000   4.0000  1.0000E-03  3.0130E-07  6.8548E+03
 # parity bigJ  0  0        1  0        1  1        2  0        2  1        2  2        3  0        3  1        3  2        3  3
 # jmin,jmax,maxlamb are            0          50         100
 # j and jp are          18          50
 # lam  B-lambda(j,jp)  angle
#   32      3.9982     10.5756
#   33      0.0519     18.6165
#   34      1.5709     24.3187
#   35      0.0291     29.0979
#   36      0.9150     33.3591
#   37      0.0250     37.2861
#   38      0.6450     40.9809
#   39      0.0214     44.5068
#   40      0.5047     47.9072
#   41      0.0173     51.2128
#   42      0.3807     54.4470
#   43      0.0130     57.6282
#   44      0.2692     60.7715
#   45      0.0091     63.8893
#   46      0.1921     66.9926
#   47      0.0056     70.0914
#   48      0.1290     73.1946
#   49      0.0029     76.3110
#   50      0.0682     79.4490
#   51      0.0013     82.6172
#   52      0.0274     85.8243
#   53      0.0005     89.0797
#   54      0.0109     92.3935
#   55      0.0002     95.7770
#   56      0.0053     99.2431
#   57      0.0001    102.8065
#   58      0.0022    106.4852
#   59      0.0000    110.3006
#   60      0.0006    114.2799
#   61      0.0000    118.4581
#   62      0.0001    122.8817
#   63      0.0000    127.6161
#   64      0.0000    132.7578
#   65      0.0000    138.4609
#   66      0.0000    145.0026
#   67      0.0000    152.9895
#   68      0.0000    164.5233
   0    1.04325E+01    1.0000000000000000
   1    8.62371E+00    0.8266192059496398
   2    6.14566E+00    0.5890876723018247
   3    4.18809E+00    0.4014459162275725
   4    3.11790E+00    0.2988637667664709
   5    2.60617E+00    0.2498120241704449
   6    2.24862E+00    0.2155400600770891
   7    1.90298E+00    0.1824091421882775
   8    1.60754E+00    0.1540895811511165
   9    1.39487E+00    0.1337037703269028
  10    1.23736E+00    0.1186058186768317
  11    1.10438E+00    0.1058599667425631
  12    9.98327E-01    0.0956938289117587
  13    9.25143E-01    0.0886788414179827
  14    8.68687E-01    0.0832673641341762
  15    8.09219E-01    0.0775671137903013
  16    7.45805E-01    0.0714885472256657
  17    6.88459E-01    0.0659917547974018
  18    6.41286E-01    0.0614699770184654
  19    6.00398E-01    0.0575506495598639
  20    5.61830E-01    0.0538538087791645
  21    5.24750E-01    0.0502995340346280
  22    4.89948E-01    0.0469635937412345
  23    4.57612E-01    0.0438640433349560
  24    4.27647E-01    0.0409917310591413
  25    3.99726E-01    0.0383154346065790
  26    3.74119E-01    0.0358609046919444
  27    3.50589E-01    0.0336054117322766
  28    3.30490E-01    0.0316788326707272
  29    3.12045E-01    0.0299108801426047
  30    3.00658E-01    0.0288193036845762
  31    2.87385E-01    0.0275470672227920
  32    2.88084E-01    0.0276140934431275
  33    2.76778E-01    0.0265303134506528
  34    2.70389E-01    0.0259179551390045
  35    2.34541E-01    0.0224817905012112
  36    3.23510E-01    0.0310098319982544
