  # July 4, 2014 09:19:42
 # jmin,jmax    0   50
 # Eau     0.00200000
 # r0,ra,rb,rdel,tol,Bau,mu   3.5000  25.0000  25.0000   4.0000  1.0000E-03  3.0130E-07  6.8548E+03
 # parity bigJ  0  0        1  0        1  1        2  0        2  1        2  2        3  0        3  1        3  2        3  3
 # jmin,jmax,maxlamb are            0          50         100
 # j and jp are          18          46
 # lam  B-lambda(j,jp)  angle
#   28      5.3781     10.3108
#   29      0.1045     18.1718
#   30      2.3981     23.7605
#   31      0.0739     28.4556
#   32      1.6863     32.6510
#   33      0.0646     36.5252
#   34      1.2199     40.1770
#   35      0.0529     43.6681
#   36      0.8762     47.0402
#   37      0.0411     50.3232
#   38      0.6703     53.5398
#   39      0.0299     56.7077
#   40      0.5500     59.8416
#   41      0.0207     62.9536
#   42      0.4213     66.0545
#   43      0.0138     69.1538
#   44      0.2542     72.2604
#   45      0.0085     75.3828
#   46      0.1465     78.5295
#   47      0.0048     81.7087
#   48      0.1276     84.9294
#   49      0.0025     88.2006
#   50      0.1110     91.5327
#   51      0.0012     94.9369
#   52      0.0658     98.4259
#   53      0.0005    102.0150
#   54      0.0288    105.7218
#   55      0.0002    109.5682
#   56      0.0128    113.5815
#   57      0.0001    117.7970
#   58      0.0060    122.2620
#   59      0.0000    127.0424
#   60      0.0021    132.2357
#   61      0.0000    137.9980
#   62      0.0005    144.6095
#   63      0.0000    152.6841
#   64      0.0002    164.3480
   0    1.60910E+01    1.0000000000000000
   1    1.24694E+01    0.7749310736195820
   2    8.09926E+00    0.5033402789602222
   3    5.17056E+00    0.3213318902225626
   4    3.70131E+00    0.2300233176119938
   5    2.95462E+00    0.1836190187036945
   6    2.52461E+00    0.1568956740187267
   7    2.22050E+00    0.1379963054473508
   8    1.92539E+00    0.1196561510788907
   9    1.67645E+00    0.1041853144978504
  10    1.55675E+00    0.0967462414935850
  11    1.49628E+00    0.0929886171843108
  12    1.36940E+00    0.0851031756076569
  13    1.19248E+00    0.0741085944616034
  14    1.06850E+00    0.0664033060225798
  15    1.01179E+00    0.0628793350713801
  16    9.65874E-01    0.0600256538159498
  17    9.03110E-01    0.0561250982273909
  18    8.45226E-01    0.0525278212718051
  19    8.01365E-01    0.0498020083845351
  20    7.69932E-01    0.0478485523492320
  21    7.36301E-01    0.0457585091141393
  22    7.09519E-01    0.0440940734485808
  23    6.78779E-01    0.0421836889370590
  24    6.61574E-01    0.0411144807213216
  25    6.34127E-01    0.0394087615364169
  26    6.24255E-01    0.0387952212727031
  27    5.94677E-01    0.0369570795160207
  28    5.88407E-01    0.0365673979457778
  29    5.50620E-01    0.0342190861376196
  30    5.54463E-01    0.0344579105685226
  31    4.84509E-01    0.0301105061201846
  32    5.46105E-01    0.0339385203925595
  33    3.80207E-01    0.0236285037750896
  34    5.03436E-01    0.0312867936766504
  35    3.83326E-01    0.0238223729711681
  36    6.57522E-01    0.0408626725746076
