  # July 4, 2014 09:19:42
 # jmin,jmax    0   50
 # Eau     0.00200000
 # r0,ra,rb,rdel,tol,Bau,mu   3.5000  25.0000  25.0000   4.0000  1.0000E-03  3.0130E-07  6.8548E+03
 # parity bigJ  0  0        1  0        1  1        2  0        2  1        2  2        3  0        3  1        3  2        3  3
 # jmin,jmax,maxlamb are            0          50         100
 # j and jp are          25          30
 # lam  B-lambda(j,jp)  angle
#    5    174.7143      4.5922
#    6      2.1739      8.4780
#    7     64.2478     11.4583
#    8      1.5489     14.1216
#    9     36.9392     16.6237
#   10      1.0746     19.0310
#   11     23.7077     21.3782
#   12      0.7931     23.6861
#   13     15.8796     25.9678
#   14      0.6261     28.2327
#   15     11.0677     30.4874
#   16      0.4930     32.7370
#   17      7.9646     34.9855
#   18      0.3753     37.2364
#   19      5.9224     39.4925
#   20      0.2888     41.7563
#   21      4.4727     44.0301
#   22      0.2302     46.3161
#   23      3.3728     48.6164
#   24      0.1826     50.9330
#   25      2.6282     53.2679
#   26      0.1417     55.6232
#   27      2.0422     58.0009
#   28      0.1103     60.4032
#   29      1.6444     62.8325
#   30      0.0870     65.2911
#   31      1.3697     67.7817
#   32      0.0682     70.3071
#   33      1.1229     72.8703
#   34      0.0529     75.4748
#   35      0.9416     78.1243
#   36      0.0404     80.8229
#   37      0.8159     83.5753
#   38      0.0302     86.3867
#   39      0.7282     89.2631
#   40      0.0215     92.2113
#   41      0.6502     95.2395
#   42      0.0143     98.3569
#   43      0.5062    101.5746
#   44      0.0089    104.9061
#   45      0.3317    108.3677
#   46      0.0055    111.9797
#   47      0.2266    115.7680
#   48      0.0033    119.7664
#   49      0.1749    124.0204
#   50      0.0018    128.5940
#   51      0.1246    133.5820
#   52      0.0009    139.1368
#   53      0.0937    145.5319
#   54      0.0003    153.3669
#   55      0.1184    164.7169
   0    1.23214E+02    1.0000000000000000
   1    1.02664E+02    0.8332166674923903
   2    8.23585E+01    0.6684182633596075
   3    6.73023E+01    0.5462225133770822
   4    5.61647E+01    0.4558300698651331
   5    4.66582E+01    0.3786758134604129
   6    3.98031E+01    0.3230401133400303
   7    3.45262E+01    0.2802129217169463
   8    3.04958E+01    0.2475022195034234
   9    2.69126E+01    0.2184210730686162
  10    2.43331E+01    0.1974863070737554
  11    2.20666E+01    0.1790918502883687
  12    2.02449E+01    0.1643070322218990
  13    1.85701E+01    0.1507142135104437
  14    1.74015E+01    0.1412298174425840
  15    1.61911E+01    0.1314063631411833
  16    1.52799E+01    0.1240112513771644
  17    1.43156E+01    0.1161848972343105
  18    1.36330E+01    0.1106447665684846
  19    1.28261E+01    0.1040961541174548
  20    1.23073E+01    0.0998855339986641
  21    1.16186E+01    0.0942960475288469
  22    1.12165E+01    0.0910326436687857
  23    1.05991E+01    0.0860220095799764
  24    1.03263E+01    0.0838080979984583
  25    9.77968E+00    0.0793714597638081
  26    9.58644E+00    0.0778030893883683
  27    9.06285E+00    0.0735536838453914
  28    8.93879E+00    0.0725468334934511
  29    8.45507E+00    0.0686210013979516
  30    8.42972E+00    0.0684152242216926
  31    7.93486E+00    0.0643989654642566
  32    8.02851E+00    0.0651590437217097
  33    7.44154E+00    0.0603951803918586
  34    7.69519E+00    0.0624538339572271
  35    7.00359E+00    0.0568408419401543
  36    7.40883E+00    0.0601297068535364
  37    6.64807E+00    0.0539554325251460
  38    7.16170E+00    0.0581240275607575
  39    6.32939E+00    0.0513690454108812
  40    6.94278E+00    0.0563472921421033
  41    6.07775E+00    0.0493267160632058
  42    6.83548E+00    0.0554764409590903
  43    5.80909E+00    0.0471462982507834
  44    6.79013E+00    0.0551083695031393
  45    5.53577E+00    0.0449280596610365
  46    6.87923E+00    0.0558315203035148
  47    5.18874E+00    0.0421116158874397
  48    7.23282E+00    0.0587012038909430
  49    4.40054E+00    0.0357145758045173
  50    9.04688E+00    0.0734240521818094
