  # July 4, 2014 09:19:42
 # jmin,jmax    0   50
 # Eau     0.00200000
 # r0,ra,rb,rdel,tol,Bau,mu   3.5000  25.0000  25.0000   4.0000  1.0000E-03  3.0130E-07  6.8548E+03
 # parity bigJ  0  0        1  0        1  1        2  0        2  1        2  2        3  0        3  1        3  2        3  3
 # jmin,jmax,maxlamb are            0          50         100
 # j and jp are          16          43
 # lam  B-lambda(j,jp)  angle
#   27      9.6211     11.0804
#   28      0.1236     19.5539
#   29      4.0225     25.5908
#   30      0.1019     30.6741
#   31      2.2955     35.2274
#   32      0.0737     39.4425
#   33      1.4827     43.4262
#   34      0.0507     47.2449
#   35      1.1630     50.9442
#   36      0.0334     54.5569
#   37      0.9704     58.1082
#   38      0.0215     61.6182
#   39      0.8269     65.1035
#   40      0.0142     68.5788
#   41      0.6525     72.0571
#   42      0.0098     75.5508
#   43      0.4168     79.0717
#   44      0.0068     82.6318
#   45      0.2467     86.2435
#   46      0.0044     89.9201
#   47      0.1692     93.6765
#   48      0.0025     97.5293
#   49      0.1102    101.4983
#   50      0.0014    105.6070
#   51      0.0643    109.8848
#   52      0.0008    114.3693
#   53      0.0444    119.1106
#   54      0.0003    124.1784
#   55      0.0310    129.6756
#   56      0.0001    135.7665
#   57      0.0166    142.7460
#   58      0.0000    151.2599
#   59      0.0095    163.5475
   0    2.64639E+01    1.0000000000000000
   1    2.00607E+01    0.7580373755335645
   2    1.32393E+01    0.5002778861374784
   3    9.08682E+00    0.3433660427631022
   4    7.13794E+00    0.2697232565271894
   5    5.96981E+00    0.2255829320803934
   6    4.89087E+00    0.1848125202268444
   7    3.89929E+00    0.1473434345754177
   8    3.25165E+00    0.1228708618714204
   9    2.89245E+00    0.1092976974225346
  10    2.71181E+00    0.1024719602037987
  11    2.50059E+00    0.0944904189742876
  12    2.28482E+00    0.0863369421427116
  13    2.09297E+00    0.0790875139642679
  14    1.98630E+00    0.0750566606185587
  15    1.83730E+00    0.0694267031923529
  16    1.71345E+00    0.0647466766106471
  17    1.56200E+00    0.0590238383963914
  18    1.49223E+00    0.0563874572689107
  19    1.37324E+00    0.0518909513730322
  20    1.32635E+00    0.0501190936142056
  21    1.20089E+00    0.0453782033886259
  22    1.16347E+00    0.0439641874107250
  23    1.03405E+00    0.0390740136457297
  24    1.00575E+00    0.0380045643130899
  25    8.69015E-01    0.0328377117416412
  26    8.71689E-01    0.0329387291676254
  27    7.08896E-01    0.0267872448082137
  28    8.08441E-01    0.0305487861140858
  29    6.09813E-01    0.0230431618489595
  30    7.77452E-01    0.0293777730613301
  31    5.08470E-01    0.0192136821957699
  32    1.24191E+00    0.0469283643655834
