  # July 4, 2014 09:19:42
 # jmin,jmax    0   50
 # Eau     0.00200000
 # r0,ra,rb,rdel,tol,Bau,mu   3.5000  25.0000  25.0000   4.0000  1.0000E-03  3.0130E-07  6.8548E+03
 # parity bigJ  0  0        1  0        1  1        2  0        2  1        2  2        3  0        3  1        3  2        3  3
 # jmin,jmax,maxlamb are            0          50         100
 # j and jp are          16          50
 # lam  B-lambda(j,jp)  angle
#   34      2.8314     11.5370
#   35      0.0263     20.3196
#   36      1.0971     26.5501
#   37      0.0174     31.7756
#   38      0.6923     36.4390
#   39      0.0159     40.7416
#   40      0.5154     44.7951
#   41      0.0133     48.6695
#   42      0.3807     52.4126
#   43      0.0103     56.0590
#   44      0.2655     59.6350
#   45      0.0073     63.1617
#   46      0.1873     66.6566
#   47      0.0045     70.1349
#   48      0.1267     73.6101
#   49      0.0024     77.0950
#   50      0.0687     80.6015
#   51      0.0011     84.1421
#   52      0.0283     87.7291
#   53      0.0004     91.3761
#   54      0.0112     95.0977
#   55      0.0002     98.9107
#   56      0.0055    102.8345
#   57      0.0001    106.8925
#   58      0.0024    111.1137
#   59      0.0000    115.5350
#   60      0.0007    120.2057
#   61      0.0000    125.1943
#   62      0.0001    130.6016
#   63      0.0000    136.5889
#   64      0.0000    143.4453
#   65      0.0000    151.8039
#   66      0.0000    163.8598
   0    8.25016E+00    1.0000000000000000
   1    6.65170E+00    0.8062515709140451
   2    4.54152E+00    0.5504770847877553
   3    2.97621E+00    0.3607458911179235
   4    2.19527E+00    0.2660881859634381
   5    1.85342E+00    0.2246524432530719
   6    1.61104E+00    0.1952743081074111
   7    1.37410E+00    0.1665549086011631
   8    1.17928E+00    0.1429399542567500
   9    1.03795E+00    0.1258096238028914
  10    9.19086E-01    0.1114022405572030
  11    8.08943E-01    0.0980517925646797
  12    7.22296E-01    0.0875493763703740
  13    6.63787E-01    0.0804575598480457
  14    6.17683E-01    0.0748692502722603
  15    5.70838E-01    0.0691911628144327
  16    5.24454E-01    0.0635690355298779
  17    4.83543E-01    0.0586102022458688
  18    4.49022E-01    0.0544258250712721
  19    4.18615E-01    0.0507402794934969
  20    3.91221E-01    0.0474198875992571
  21    3.66273E-01    0.0443959306041592
  22    3.44573E-01    0.0417656570734015
  23    3.25028E-01    0.0393965562288533
  24    3.09647E-01    0.0375322959965102
  25    2.94755E-01    0.0357272374246662
  26    2.86614E-01    0.0347403918510144
  27    2.73864E-01    0.0331950005769613
  28    2.71988E-01    0.0329675587397756
  29    2.54557E-01    0.0308547627470031
  30    2.45788E-01    0.0297919591321422
  31    2.12911E-01    0.0258069428311321
  32    2.86182E-01    0.0346880424788942
