  # July 4, 2014 09:19:42
 # jmin,jmax    0   50
 # Eau     0.00200000
 # r0,ra,rb,rdel,tol,Bau,mu   3.5000  25.0000  25.0000   4.0000  1.0000E-03  3.0130E-07  6.8548E+03
 # parity bigJ  0  0        1  0        1  1        2  0        2  1        2  2        3  0        3  1        3  2        3  3
 # jmin,jmax,maxlamb are            0          50         100
 # j and jp are          21          30
 # lam  B-lambda(j,jp)  angle
#    9     79.1185      6.7060
#   10      0.8511     12.0674
#   11     31.1255     16.0292
#   12      0.5783     19.4704
#   13     18.1151     22.6341
#   14      0.4321     25.6278
#   15     11.9071     28.5093
#   16      0.3439     31.3142
#   17      8.2961     34.0658
#   18      0.2781     36.7806
#   19      6.0233     39.4709
#   20      0.2243     42.1461
#   21      4.4635     44.8140
#   22      0.1761     47.4809
#   23      3.3224     50.1524
#   24      0.1346     52.8335
#   25      2.5973     55.5287
#   26      0.1044     58.2423
#   27      2.0347     60.9785
#   28      0.0828     63.7416
#   29      1.6310     66.5356
#   30      0.0656     69.3651
#   31      1.3621     72.2347
#   32      0.0513     75.1494
#   33      1.1266     78.1146
#   34      0.0398     81.1363
#   35      0.9510     84.2212
#   36      0.0303     87.3768
#   37      0.8338     90.6119
#   38      0.0225     93.9365
#   39      0.7529     97.3627
#   40      0.0160    100.9045
#   41      0.6912    104.5794
#   42      0.0105    108.4089
#   43      0.5721    112.4203
#   44      0.0063    116.6490
#   45      0.4006    121.1429
#   46      0.0037    125.9693
#   47      0.2884    131.2278
#   48      0.0020    137.0781
#   49      0.2601    143.8074
#   50      0.0009    152.0450
#   51      0.3220    163.9708
   0    9.74306E+01    1.0000000000000000
   1    7.38589E+01    0.7580668606498480
   2    5.64835E+01    0.5797307032628582
   3    4.39916E+01    0.4515172236793122
   4    3.55115E+01    0.3644800063231383
   5    2.82117E+01    0.2895564397746852
   6    2.41008E+01    0.2473632329336602
   7    2.03457E+01    0.2088226784249444
   8    1.79010E+01    0.1837309244150409
   9    1.56036E+01    0.1601508356445095
  10    1.42962E+01    0.1467322130598797
  11    1.25967E+01    0.1292894079759250
  12    1.17583E+01    0.1206835562168804
  13    1.05750E+01    0.1085387899838394
  14    1.00498E+01    0.1031481982662239
  15    9.12210E+00    0.0936266656202951
  16    8.81590E+00    0.0904839026623477
  17    8.05252E+00    0.0826487914429929
  18    7.88306E+00    0.0809094984186135
  19    7.22278E+00    0.0741325322498059
  20    7.12996E+00    0.0731798477897489
  21    6.50583E+00    0.0667740210605498
  22    6.53070E+00    0.0670292759823436
  23    5.93731E+00    0.0609388329769660
  24    6.08429E+00    0.0624474408861609
  25    5.42012E+00    0.0556305393787557
  26    5.68821E+00    0.0583821178503982
  27    4.93692E+00    0.0506710917908013
  28    5.34672E+00    0.0548772035493673
  29    4.53341E+00    0.0465296540048509
  30    5.04314E+00    0.0517613393923177
  31    4.18038E+00    0.0429062334010272
  32    4.76185E+00    0.0488742259341640
  33    3.84020E+00    0.0394147657304902
  34    4.50934E+00    0.0462825434296456
  35    3.54544E+00    0.0363893641886583
  36    4.34663E+00    0.0446125409115882
  37    3.19455E+00    0.0327879540348041
  38    4.22204E+00    0.0433338426252627
  39    2.81345E+00    0.0288764446960275
  40    4.30119E+00    0.0441461988001630
  41    2.31032E+00    0.0237124383783440
  42    5.24718E+00    0.0538555952826062
