  # July 4, 2014 09:19:42
 # jmin,jmax    0   50
 # Eau     0.00200000
 # r0,ra,rb,rdel,tol,Bau,mu   3.5000  25.0000  25.0000   4.0000  1.0000E-03  3.0130E-07  6.8548E+03
 # parity bigJ  0  0        1  0        1  1        2  0        2  1        2  2        3  0        3  1        3  2        3  3
 # jmin,jmax,maxlamb are            0          50         100
 # j and jp are          32          44
 # lam  B-lambda(j,jp)  angle
#   12     46.6703      5.2159
#   13      7.0446      9.2954
#   14     14.5643     12.2619
#   15      4.3610     14.8023
#   16      8.2540     17.1087
#   17      2.7233     19.2669
#   18      5.7515     21.3233
#   19      1.8483     23.3062
#   20      4.4478     25.2343
#   21      1.3008     27.1206
#   22      3.3719     28.9746
#   23      0.9654     30.8035
#   24      2.8378     32.6129
#   25      0.7593     34.4073
#   26      2.3613     36.1902
#   27      0.6122     37.9648
#   28      1.7740     39.7336
#   29      0.4995     41.4988
#   30      1.3969     43.2625
#   31      0.4058     45.0262
#   32      1.0972     46.7917
#   33      0.3113     48.5603
#   34      0.7874     50.3335
#   35      0.2126     52.1125
#   36      0.5871     53.8986
#   37      0.1301     55.6929
#   38      0.4431     57.4966
#   39      0.0759     59.3110
#   40      0.3300     61.1371
#   41      0.0432     62.9762
#   42      0.2596     64.8294
#   43      0.0249     66.6980
#   44      0.1988     68.5833
#   45      0.0162     70.4866
#   46      0.1558     72.4093
#   47      0.0108     74.3529
#   48      0.1270     76.3190
#   49      0.0060     78.3092
#   50      0.0829     80.3255
#   51      0.0027     82.3697
#   52      0.0386     84.4439
#   53      0.0011     86.5506
#   54      0.0159     88.6923
#   55      0.0005     90.8718
#   56      0.0073     93.0922
#   57      0.0002     95.3570
#   58      0.0028     97.6703
#   59      0.0000    100.0365
#   60      0.0007    102.4607
#   61      0.0000    104.9488
#   62      0.0001    107.5076
#   63      0.0000    110.1453
#   64      0.0000    112.8713
#   65      0.0000    115.6971
#   66      0.0000    118.6369
#   67      0.0000    121.7081
#   68      0.0000    124.9331
#   69      0.0000    128.3408
#   70      0.0000    131.9704
#   71      0.0000    135.8771
#   72      0.0000    140.1426
#   73      0.0000    144.8976
#   74      0.0000    150.3776
#   75      0.0000    157.0977
#   76      0.0000    166.8377
   0    5.19702E+01    1.0000000000000000
   1    4.66842E+01    0.8982876213102741
   2    3.85434E+01    0.7416442354797556
   3    3.05231E+01    0.5873186116289917
   4    2.43042E+01    0.4676566550297744
   5    1.99992E+01    0.3848215578915641
   6    1.70368E+01    0.3278193105419105
   7    1.49142E+01    0.2869753418476551
   8    1.33086E+01    0.2560808990055442
   9    1.19610E+01    0.2301518133629699
  10    1.07037E+01    0.2059581989581572
  11    9.52818E+00    0.1833392974482960
  12    8.51311E+00    0.1638075313647469
  13    7.68738E+00    0.1479189749586972
  14    6.99872E+00    0.1346680150505513
  15    6.38875E+00    0.1229309987402196
  16    5.84525E+00    0.1124731562689300
  17    5.37489E+00    0.1034226163926606
  18    4.96426E+00    0.0955213218868114
  19    4.59077E+00    0.0883347420420728
  20    4.25003E+00    0.0817781475929407
  21    3.94766E+00    0.0759600458328385
  22    3.67516E+00    0.0707167885350830
  23    3.41541E+00    0.0657186105436887
  24    3.16673E+00    0.0609335388324822
  25    2.94351E+00    0.0566384454424693
  26    2.75466E+00    0.0530045369960271
  27    2.59484E+00    0.0499294540138822
  28    2.45522E+00    0.0472428490135276
  29    2.32982E+00    0.0448299905331683
  30    2.21032E+00    0.0425305822238371
  31    2.08519E+00    0.0401227409744305
  32    1.94941E+00    0.0375101037177795
  33    1.81085E+00    0.0348439472821379
  34    1.68354E+00    0.0323944236674507
  35    1.57613E+00    0.0303275604888907
  36    1.48756E+00    0.0286233162180485
  37    1.41139E+00    0.0271577526779983
  38    1.34183E+00    0.0258192142808140
  39    1.27610E+00    0.0245545012345903
  40    1.21390E+00    0.0233575435675535
  41    1.15539E+00    0.0222318570134469
  42    1.10063E+00    0.0211780774415502
  43    1.04892E+00    0.0201831922471175
  44    9.99659E-01    0.0192352330621034
  45    9.52786E-01    0.0183333187360492
  46    9.07940E-01    0.0174703983098909
  47    8.65904E-01    0.0166615612809833
  48    8.30456E-01    0.0159794702102835
  49    7.93024E-01    0.0152592171767591
  50    7.71748E-01    0.0148498127587051
  51    7.49498E-01    0.0144216831332173
  52    7.39524E-01    0.0142297729906198
  53    7.30304E-01    0.0140523656839093
  54    7.72677E-01    0.0148676919487869
  55    7.19508E-01    0.0138446389780040
  56    7.78031E-01    0.0149707124829148
  57    6.52473E-01    0.0125547464589172
  58    7.59992E-01    0.0146236219769537
  59    6.19724E-01    0.0119246085441359
  60    8.28064E-01    0.0159334484342506
  61    6.30442E-01    0.0121308458003286
  62    9.57273E-01    0.0184196602044067
  63    6.36548E-01    0.0122483254164612
  64    1.27042E+00    0.0244450868861678
