  # July 4, 2014 09:19:42
 # jmin,jmax    0   50
 # Eau     0.00200000
 # r0,ra,rb,rdel,tol,Bau,mu   3.5000  25.0000  25.0000   4.0000  1.0000E-03  3.0130E-07  6.8548E+03
 # parity bigJ  0  0        1  0        1  1        2  0        2  1        2  2        3  0        3  1        3  2        3  3
 # jmin,jmax,maxlamb are            0          50         100
 # j and jp are          12          46
 # lam  B-lambda(j,jp)  angle
#   34      2.9690     13.7948
#   35      0.0145     24.3715
#   36      1.2121     31.9077
#   37      0.0148     38.2618
#   38      0.7615     43.9655
#   39      0.0121     49.2619
#   40      0.5681     54.2869
#   41      0.0089     59.1276
#   42      0.4271     63.8445
#   43      0.0061     68.4837
#   44      0.2676     73.0820
#   45      0.0038     77.6715
#   46      0.1570     82.2813
#   47      0.0022     86.9401
#   48      0.1333     91.6774
#   49      0.0012     96.5255
#   50      0.1224    101.5218
#   51      0.0006    106.7118
#   52      0.0809    112.1540
#   53      0.0002    117.9278
#   54      0.0399    124.1486
#   55      0.0001    130.9991
#   56      0.0206    138.8051
#   57      0.0000    148.2794
#   58      0.0169    161.8958
   0    1.07899E+01    1.0000000000000000
   1    7.44411E+00    0.6899171419704802
   2    4.58679E+00    0.4251020677674742
   3    3.07132E+00    0.2846483113241412
   4    2.30906E+00    0.2140028502114736
   5    1.85203E+00    0.1716456577103039
   6    1.67808E+00    0.1555238399748769
   7    1.42469E+00    0.1320394941954873
   8    1.16876E+00    0.1083203437080670
   9    9.89356E-01    0.0916931026964180
  10    9.47281E-01    0.0877935900926707
  11    8.54881E-01    0.0792300104265396
  12    7.88794E-01    0.0731050636578520
  13    6.90230E-01    0.0639702020023375
  14    6.60355E-01    0.0612013896070340
  15    5.80935E-01    0.0538408263700029
  16    5.71624E-01    0.0529778563983482
  17    4.86510E-01    0.0450894931202308
  18    5.08557E-01    0.0471327952935645
  19    3.99949E-01    0.0370671280462635
  20    4.82242E-01    0.0446940068895533
  21    3.19777E-01    0.0296367993600196
  22    5.03593E-01    0.0466727239954769
  23    3.18051E-01    0.0294768057344296
  24    5.35509E-01    0.0496307278442250
