  # July 4, 2014 09:19:42
 # jmin,jmax    0   50
 # Eau     0.00200000
 # r0,ra,rb,rdel,tol,Bau,mu   3.5000  25.0000  25.0000   4.0000  1.0000E-03  3.0130E-07  6.8548E+03
 # parity bigJ  0  0        1  0        1  1        2  0        2  1        2  2        3  0        3  1        3  2        3  3
 # jmin,jmax,maxlamb are            0          50         100
 # j and jp are          28          32
 # lam  B-lambda(j,jp)  angle
#    4    683.7540      3.7644
#    5     29.8335      7.0484
#    6    140.5107      9.6112
#    7     12.1990     11.9291
#    8     52.7513     14.1252
#    9      5.0861     16.2509
#   10     24.4863     18.3327
#   11      2.5636     20.3860
#   12     13.0562     22.4207
#   13      1.5284     24.4436
#   14      7.9408     26.4594
#   15      0.9416     28.4718
#   16      5.2800     30.4838
#   17      0.6401     32.4975
#   18      3.6788     34.5152
#   19      0.4414     36.5384
#   20      2.7091     38.5689
#   21      0.2784     40.6079
#   22      1.9929     42.6570
#   23      0.1741     44.7175
#   24      1.5295     46.7906
#   25      0.1216     48.8777
#   26      1.2765     50.9800
#   27      0.0945     53.0991
#   28      1.0786     55.2361
#   29      0.0781     57.3927
#   30      0.8723     59.5703
#   31      0.0656     61.7706
#   32      0.7475     63.9952
#   33      0.0533     66.2461
#   34      0.6561     68.5252
#   35      0.0421     70.8347
#   36      0.4951     73.1769
#   37      0.0333     75.5544
#   38      0.3684     77.9700
#   39      0.0261     80.4268
#   40      0.3099     82.9284
#   41      0.0200     85.4785
#   42      0.2725     88.0815
#   43      0.0148     90.7425
#   44      0.2281     93.4671
#   45      0.0104     96.2618
#   46      0.1699     99.1342
#   47      0.0069    102.0933
#   48      0.1275    105.1496
#   49      0.0044    108.3159
#   50      0.1140    111.6078
#   51      0.0024    115.0448
#   52      0.0935    118.6516
#   53      0.0010    122.4605
#   54      0.0560    126.5150
#   55      0.0004    130.8764
#   56      0.0279    135.6354
#   57      0.0001    140.9376
#   58      0.0160    147.0447
#   59      0.0000    154.5299
#   60      0.0126    165.3763
   0    1.94504E+02    1.0000000000000000
   1    1.83832E+02    0.9451320167778036
   2    1.70880E+02    0.8785397853615282
   3    1.59343E+02    0.8192248091798453
   4    1.48742E+02    0.7647229074955919
   5    1.38658E+02    0.7128795879089241
   6    1.29133E+02    0.6639070528125982
   7    1.20035E+02    0.6171345377652357
   8    1.11600E+02    0.5737635311421139
   9    1.03813E+02    0.5337326633671873
  10    9.66507E+01    0.4969072016354978
  11    9.00319E+01    0.4628785108776946
  12    8.38851E+01    0.4312759091274256
  13    7.81221E+01    0.4016470886247774
  14    7.28981E+01    0.3747888712016133
  15    6.81264E+01    0.3502563855337940
  16    6.37521E+01    0.3277670478287610
  17    5.97040E+01    0.3069545922312241
  18    5.60553E+01    0.2881953969213806
  19    5.26962E+01    0.2709256126350249
  20    4.96342E+01    0.2551827685941426
  21    4.67453E+01    0.2403304284680289
  22    4.40997E+01    0.2267282625945576
  23    4.16134E+01    0.2139456272258136
  24    3.93896E+01    0.2025125712883857
  25    3.72629E+01    0.1915785568936728
  26    3.53461E+01    0.1817236878704862
  27    3.34431E+01    0.1719401165531302
  28    3.17757E+01    0.1633677129371573
  29    3.00775E+01    0.1546367025815401
  30    2.86390E+01    0.1472407683653713
  31    2.71043E+01    0.1393505290339818
  32    2.58450E+01    0.1328759020973100
  33    2.44588E+01    0.1257493324600707
  34    2.33469E+01    0.1200329120686969
  35    2.20824E+01    0.1135317710667199
  36    2.10881E+01    0.1084198788326954
  37    1.99064E+01    0.1023443068556299
  38    1.90381E+01    0.0978800062635828
  39    1.79077E+01    0.0920681707203842
  40    1.71598E+01    0.0882233238599884
  41    1.60622E+01    0.0825801204923644
  42    1.54355E+01    0.0793579737469373
  43    1.43475E+01    0.0737644412524948
  44    1.37855E+01    0.0708748430413741
  45    1.27451E+01    0.0655259885129188
  46    1.22667E+01    0.0630665928248431
  47    1.11542E+01    0.0573466720624728
  48    1.08909E+01    0.0559931365066545
  49    9.66909E+00    0.0497114333550107
  50    9.53628E+00    0.0490286161919827
  51    8.12339E+00    0.0417645676880142
  52    8.19631E+00    0.0421394444315092
  53    6.49366E+00    0.0333856602407702
  54    6.84321E+00    0.0351828115848716
  55    4.58096E+00    0.0235519363092819
  56    6.13005E+00    0.0315162302798315
