  # July 4, 2014 09:19:42
 # jmin,jmax    0   50
 # Eau     0.00200000
 # r0,ra,rb,rdel,tol,Bau,mu   3.5000  25.0000  25.0000   4.0000  1.0000E-03  3.0130E-07  6.8548E+03
 # parity bigJ  0  0        1  0        1  1        2  0        2  1        2  2        3  0        3  1        3  2        3  3
 # jmin,jmax,maxlamb are            0          50         100
 # j and jp are          31          33
 # lam  B-lambda(j,jp)  angle
#    2   3308.7340      2.4943
#    3     96.9905      4.9906
#    4    407.6619      7.0602
#    5     36.5945      9.0037
#    6    126.0418     10.8902
#    7     15.0359     12.7465
#    8     50.8926     14.5855
#    9      6.0915     16.4146
#   10     24.5081     18.2382
#   11      3.1827     20.0595
#   12     13.6473     21.8806
#   13      1.9081     23.7032
#   14      8.3406     25.5286
#   15      1.2177     27.3581
#   16      5.5512     29.1925
#   17      0.8071     31.0328
#   18      3.7382     32.8799
#   19      0.4914     34.7345
#   20      2.6238     36.5975
#   21      0.3016     38.4696
#   22      2.0208     40.3516
#   23      0.2113     42.2443
#   24      1.5971     44.1486
#   25      0.1567     46.0652
#   26      1.3051     47.9951
#   27      0.1223     49.9390
#   28      1.0792     51.8981
#   29      0.0972     53.8732
#   30      0.8664     55.8655
#   31      0.0771     57.8760
#   32      0.7642     59.9059
#   33      0.0626     61.9565
#   34      0.6591     64.0291
#   35      0.0505     66.1252
#   36      0.4890     68.2464
#   37      0.0405     70.3943
#   38      0.3724     72.5709
#   39      0.0320     74.7780
#   40      0.3155     77.0180
#   41      0.0245     79.2933
#   42      0.2742     81.6065
#   43      0.0181     83.9605
#   44      0.2209     86.3589
#   45      0.0127     88.8051
#   46      0.1579     91.3035
#   47      0.0085     93.8588
#   48      0.1216     96.4765
#   49      0.0053     99.1629
#   50      0.1076    101.9252
#   51      0.0028    104.7722
#   52      0.0785    107.7140
#   53      0.0012    110.7630
#   54      0.0408    113.9342
#   55      0.0005    117.2465
#   56      0.0185    120.7238
#   57      0.0002    124.3974
#   58      0.0092    128.3092
#   59      0.0001    132.5186
#   60      0.0040    137.1134
#   61      0.0000    142.2343
#   62      0.0012    148.1345
#   63      0.0000    155.3682
#   64      0.0004    165.8523
   0    4.09096E+02    1.0000000000000000
   1    3.99275E+02    0.9759937880019407
   2    3.85575E+02    0.9425070263746569
   3    3.72197E+02    0.9098047186470235
   4    3.59317E+02    0.8783196750367518
   5    3.46395E+02    0.8467339098519937
   6    3.33539E+02    0.8153094059490243
   7    3.20856E+02    0.7843060353565032
   8    3.08429E+02    0.7539280926122927
   9    2.96438E+02    0.7246191476490216
  10    2.84946E+02    0.6965263385659116
  11    2.73898E+02    0.6695211629811282
  12    2.63291E+02    0.6435935175165453
  13    2.53091E+02    0.6186607914462029
  14    2.43257E+02    0.5946206374026043
  15    2.33839E+02    0.5715989922247050
  16    2.24873E+02    0.5496834213702385
  17    2.16280E+02    0.5286772873792391
  18    2.08021E+02    0.5084897570446222
  19    2.00140E+02    0.4892257621604263
  20    1.92661E+02    0.4709443810219965
  21    1.85531E+02    0.4535149959609993
  22    1.78706E+02    0.4368322726225760
  23    1.72142E+02    0.4207871437560023
  24    1.65835E+02    0.4053706113480295
  25    1.59764E+02    0.3905303574356100
  26    1.53940E+02    0.3762938076350979
  27    1.48312E+02    0.3625354743787258
  28    1.42880E+02    0.3492590262156242
  29    1.37603E+02    0.3363598662117283
  30    1.32522E+02    0.3239389384506021
  31    1.27587E+02    0.3118757774239057
  32    1.22831E+02    0.3002509033569905
  33    1.18168E+02    0.2888524966520101
  34    1.13668E+02    0.2778518241269075
  35    1.09215E+02    0.2669657863274910
  36    1.04962E+02    0.2565717036580778
  37    1.00704E+02    0.2461622155940682
  38    9.66960E+01    0.2363652669273275
  39    9.26239E+01    0.2264113790497286
  40    8.88329E+01    0.2171445678430255
  41    8.49490E+01    0.2076508549513695
  42    8.13491E+01    0.1988509860037257
  43    7.76286E+01    0.1897565403152682
  44    7.42242E+01    0.1814349679011914
  45    7.06206E+01    0.1726262388032697
  46    6.74011E+01    0.1647563441398338
  47    6.38746E+01    0.1561360447616688
  48    6.08485E+01    0.1487391282969323
  49    5.73878E+01    0.1402796466006612
  50    5.44601E+01    0.1331230996305916
  51    5.10761E+01    0.1248512244688731
  52    4.83380E+01    0.1181581140898834
  53    4.48554E+01    0.1096452819970738
  54    4.23061E+01    0.1034136105087377
  55    3.86717E+01    0.0945298320780706
  56    3.62613E+01    0.0886376964467725
  57    3.24028E+01    0.0792058853259788
  58    3.02061E+01    0.0738364061929630
  59    2.58376E+01    0.0631578416109239
  60    2.38461E+01    0.0582897604111597
  61    1.82392E+01    0.0445841811684530
  62    1.76839E+01    0.0432267286360908
