  # July 4, 2014 09:19:42
 # jmin,jmax    0   50
 # Eau     0.00200000
 # r0,ra,rb,rdel,tol,Bau,mu   3.5000  25.0000  25.0000   4.0000  1.0000E-03  3.0130E-07  6.8548E+03
 # parity bigJ  0  0        1  0        1  1        2  0        2  1        2  2        3  0        3  1        3  2        3  3
 # jmin,jmax,maxlamb are            0          50         100
 # j and jp are          13          49
 # lam  B-lambda(j,jp)  angle
#   36      2.0380     13.2430
#   37      0.0067     23.3649
#   38      0.9049     30.5607
#   39      0.0073     36.6126
#   40      0.6098     42.0308
#   41      0.0064     47.0480
#   42      0.4123     51.7942
#   43      0.0049     56.3517
#   44      0.2555     60.7776
#   45      0.0035     65.1142
#   46      0.1604     69.3949
#   47      0.0023     73.6479
#   48      0.1085     77.8977
#   49      0.0013     82.1675
#   50      0.0648     86.4799
#   51      0.0006     90.8581
#   52      0.0293     95.3275
#   53      0.0002     99.9168
#   54      0.0117    104.6602
#   55      0.0001    109.6000
#   56      0.0059    114.7913
#   57      0.0000    120.3097
#   58      0.0031    126.2658
#   59      0.0000    132.8349
#   60      0.0012    140.3306
#   61      0.0000    149.4393
#   62      0.0004    162.5424
   0    7.07923E+00    1.0000000000000000
   1    5.46599E+00    0.7721159722785168
   2    3.50585E+00    0.4952306271475544
   3    2.17691E+00    0.3075065597763649
   4    1.54069E+00    0.2176355135268134
   5    1.24894E+00    0.1764233336925005
   6    1.07089E+00    0.1512726028465065
   7    9.50230E-01    0.1342279407682772
   8    8.63933E-01    0.1220377519137114
   9    7.71286E-01    0.1089506246519261
  10    6.75557E-01    0.0954280091896135
  11    6.00791E-01    0.0848667419559235
  12    5.53730E-01    0.0782189666151245
  13    5.14925E-01    0.0727374341822199
  14    4.80595E-01    0.0678879789576955
  15    4.46302E-01    0.0630438904831243
  16    4.21204E-01    0.0594986063434100
  17    3.95119E-01    0.0558138569876251
  18    3.78999E-01    0.0535368084183352
  19    3.56624E-01    0.0503760850257030
  20    3.46788E-01    0.0489866864180757
  21    3.24818E-01    0.0458832560266210
  22    3.17669E-01    0.0448733627011840
  23    2.89108E-01    0.0408388629564226
  24    2.79907E-01    0.0395391629237865
  25    2.08597E-01    0.0294661221114350
  26    2.82160E-01    0.0398574908999498
