  # July 4, 2014 09:19:42
 # jmin,jmax    0   50
 # Eau     0.00200000
 # r0,ra,rb,rdel,tol,Bau,mu   3.5000  25.0000  25.0000   4.0000  1.0000E-03  3.0130E-07  6.8548E+03
 # parity bigJ  0  0        1  0        1  1        2  0        2  1        2  2        3  0        3  1        3  2        3  3
 # jmin,jmax,maxlamb are            0          50         100
 # j and jp are          20          33
 # lam  B-lambda(j,jp)  angle
#   13     44.1614      7.8722
#   14      0.4022     14.0269
#   15     17.5059     18.4987
#   16      0.3433     22.3281
#   17     10.7190     25.8079
#   18      0.2724     29.0687
#   19      7.2034     32.1821
#   20      0.2143     35.1920
#   21      5.0798     38.1279
#   22      0.1698     41.0108
#   23      3.6853     43.8562
#   24      0.1351     46.6763
#   25      2.8068     49.4809
#   26      0.1080     52.2783
#   27      2.1397     55.0756
#   28      0.0857     57.8792
#   29      1.6940     60.6948
#   30      0.0678     63.5281
#   31      1.3973     66.3843
#   32      0.0534     69.2687
#   33      1.1387     72.1869
#   34      0.0416     75.1444
#   35      0.9512     78.1472
#   36      0.0320     81.2017
#   37      0.8226     84.3151
#   38      0.0239     87.4953
#   39      0.7337     90.7512
#   40      0.0170     94.0932
#   41      0.6587     97.5335
#   42      0.0112    101.0864
#   43      0.5200    104.7693
#   44      0.0069    108.6039
#   45      0.3470    112.6175
#   46      0.0042    116.8455
#   47      0.2423    121.3358
#   48      0.0024    126.1553
#   49      0.1960    131.4033
#   50      0.0012    137.2390
#   51      0.1555    143.9482
#   52      0.0005    152.1575
#   53      0.1744    164.0374
   0    7.22887E+01    1.0000000000000000
   1    5.39209E+01    0.7459102554317852
   2    3.92379E+01    0.5427941720051462
   3    2.98207E+01    0.4125223972211711
   4    2.37792E+01    0.3289481690463494
   5    1.86073E+01    0.2574021260537481
   6    1.55603E+01    0.2152527683617292
   7    1.32370E+01    0.1831135869162779
   8    1.16682E+01    0.1614109804997341
   9    1.01112E+01    0.1398726519392171
  10    9.33596E+00    0.1291482537936029
  11    8.36408E+00    0.1157038001114685
  12    7.75726E+00    0.1073094271390457
  13    7.01375E+00    0.0970240570930853
  14    6.67183E+00    0.0922942360182897
  15    6.04908E+00    0.0836793821293519
  16    5.80503E+00    0.0803033874723950
  17    5.27098E+00    0.0729156740821735
  18    5.11871E+00    0.0708093010743932
  19    4.64617E+00    0.0642723481428645
  20    4.59954E+00    0.0636273190725885
  21    4.17361E+00    0.0577353101808419
  22    4.16725E+00    0.0576472481665599
  23    3.74647E+00    0.0518265011708117
  24    3.79842E+00    0.0525451451502017
  25    3.39398E+00    0.0469503645729281
  26    3.53387E+00    0.0488855571051870
  27    3.08140E+00    0.0426263009798430
  28    3.34153E+00    0.0462247245191204
  29    2.76813E+00    0.0382926549101901
  30    3.18182E+00    0.0440154388110660
  31    2.47657E+00    0.0342594475214408
  32    3.02266E+00    0.0418137634274126
  33    2.23063E+00    0.0308572267693044
  34    2.90266E+00    0.0401537466153278
  35    2.01026E+00    0.0278087077316745
  36    2.78065E+00    0.0384658550972152
  37    1.72037E+00    0.0237985599519363
  38    2.78970E+00    0.0385911071026747
  39    1.35545E+00    0.0187505661749315
  40    3.32031E+00    0.0459312098597277
