  # July 4, 2014 09:19:42
 # jmin,jmax    0   50
 # Eau     0.00200000
 # r0,ra,rb,rdel,tol,Bau,mu   3.5000  25.0000  25.0000   4.0000  1.0000E-03  3.0130E-07  6.8548E+03
 # parity bigJ  0  0        1  0        1  1        2  0        2  1        2  2        3  0        3  1        3  2        3  3
 # jmin,jmax,maxlamb are            0          50         100
 # j and jp are          25          31
 # lam  B-lambda(j,jp)  angle
#    6    250.9948      4.9496
#    7     10.8511      9.0492
#    8     61.5778     12.1525
#    9      4.1492     14.8985
#   10     25.0255     17.4595
#   11      2.0126     19.9097
#   12     12.6242     22.2884
#   13      0.9701     24.6191
#   14      7.2673     26.9171
#   15      0.4707     29.1929
#   16      4.7199     31.4543
#   17      0.2728     33.7070
#   18      3.2129     35.9558
#   19      0.1852     38.2045
#   20      2.3926     40.4562
#   21      0.1377     42.7139
#   22      1.8943     44.9801
#   23      0.1098     47.2571
#   24      1.4840     49.5472
#   25      0.0926     51.8525
#   26      1.2407     54.1752
#   27      0.0786     56.5173
#   28      1.0544     58.8811
#   29      0.0645     61.2688
#   30      0.8583     63.6828
#   31      0.0523     66.1255
#   32      0.7291     68.5995
#   33      0.0424     71.1078
#   34      0.6531     73.6534
#   35      0.0336     76.2397
#   36      0.5060     78.8705
#   37      0.0263     81.5498
#   38      0.3706     84.2823
#   39      0.0206     87.0733
#   40      0.3087     89.9286
#   41      0.0157     92.8553
#   42      0.2747     95.8611
#   43      0.0115     98.9555
#   44      0.2379    102.1494
#   45      0.0080    105.4562
#   46      0.1868    108.8922
#   47      0.0053    112.4774
#   48      0.1416    116.2376
#   49      0.0033    120.2064
#   50      0.1283    124.4289
#   51      0.0017    128.9687
#   52      0.1207    133.9200
#   53      0.0007    139.4339
#   54      0.0925    145.7821
#   55      0.0002    153.5597
#   56      0.0796    164.8265
   0    1.19249E+02    1.0000000000000000
   1    1.07536E+02    0.9017765118063965
   2    9.63928E+01    0.8083296259812519
   3    8.70574E+01    0.7300445526921895
   4    7.92507E+01    0.6645797532870066
   5    7.19886E+01    0.6036809808831548
   6    6.53096E+01    0.5476724814700481
   7    5.89847E+01    0.4946330515571402
   8    5.34164E+01    0.4479388802767318
   9    4.83162E+01    0.4051694042720091
  10    4.39930E+01    0.3689158475107966
  11    3.99260E+01    0.3348106026937556
  12    3.64466E+01    0.3056330752800685
  13    3.32946E+01    0.2792012626627319
  14    3.06585E+01    0.2570955374532007
  15    2.81084E+01    0.2357111845734108
  16    2.59972E+01    0.2180065675496413
  17    2.39625E+01    0.2009445492457043
  18    2.23499E+01    0.1874213603901464
  19    2.06857E+01    0.1734658043548646
  20    1.93712E+01    0.1624424092185485
  21    1.79727E+01    0.1507155262709859
  22    1.69620E+01    0.1422399623333376
  23    1.58163E+01    0.1326320883223440
  24    1.49860E+01    0.1256695224402208
  25    1.39723E+01    0.1171683991562237
  26    1.32766E+01    0.1113347994645268
  27    1.24068E+01    0.1040409580292625
  28    1.18463E+01    0.0993402067956313
  29    1.10771E+01    0.0928902704848839
  30    1.06283E+01    0.0891267025050141
  31    9.91243E+00    0.0831235115506653
  32    9.55505E+00    0.0801266016366542
  33    8.84989E+00    0.0742133055047638
  34    8.56616E+00    0.0718340128103292
  35    7.86947E+00    0.0659917144841315
  36    7.66259E+00    0.0642568069738213
  37    6.96140E+00    0.0583767989979457
  38    6.80012E+00    0.0570243364266075
  39    6.12832E+00    0.0513908222485277
  40    6.01565E+00    0.0504459856043359
  41    5.29412E+00    0.0443953626643465
  42    5.35393E+00    0.0448969026774518
  43    4.47530E+00    0.0375289463706393
  44    4.65279E+00    0.0390172690845085
  45    3.66112E+00    0.0307013632086846
  46    4.05049E+00    0.0339665077444179
  47    2.88348E+00    0.0241802724258917
  48    3.58518E+00    0.0300645406774134
  49    2.03952E+00    0.0171029965715017
  50    3.62995E+00    0.0304400184126212
