  # July 4, 2014 09:19:42
 # jmin,jmax    0   50
 # Eau     0.00200000
 # r0,ra,rb,rdel,tol,Bau,mu   3.5000  25.0000  25.0000   4.0000  1.0000E-03  3.0130E-07  6.8548E+03
 # parity bigJ  0  0        1  0        1  1        2  0        2  1        2  2        3  0        3  1        3  2        3  3
 # jmin,jmax,maxlamb are            0          50         100
 # j and jp are          26          34
 # lam  B-lambda(j,jp)  angle
#    8    120.4835      5.3565
#    9      6.9849      9.6718
#   10     35.3396     12.8784
#   11      3.2670     15.6749
#   12     16.4691     18.2533
#   13      1.7400     20.6978
#   14      9.1885     23.0534
#   15      1.0713     25.3474
#   16      5.9148     27.5976
#   17      0.7316     29.8164
#   18      4.0727     32.0128
#   19      0.5044     34.1938
#   20      2.9437     36.3647
#   21      0.3387     38.5299
#   22      2.1794     40.6931
#   23      0.2228     42.8574
#   24      1.6646     45.0257
#   25      0.1479     47.2003
#   26      1.3285     49.3836
#   27      0.1034     51.5779
#   28      1.0856     53.7851
#   29      0.0770     56.0074
#   30      0.8793     58.2467
#   31      0.0618     60.5051
#   32      0.7618     62.7847
#   33      0.0510     65.0878
#   34      0.6638     67.4165
#   35      0.0408     69.7732
#   36      0.4976     72.1607
#   37      0.0323     74.5815
#   38      0.3707     77.0388
#   39      0.0254     79.5358
#   40      0.3112     82.0761
#   41      0.0194     84.6639
#   42      0.2729     87.3034
#   43      0.0143     90.0000
#   44      0.2277     92.7593
#   45      0.0100     95.5880
#   46      0.1687     98.4939
#   47      0.0067    101.4859
#   48      0.1269    104.5748
#   49      0.0042    107.7735
#   50      0.1137    111.0977
#   51      0.0023    114.5671
#   52      0.0923    118.2066
#   53      0.0010    122.0487
#   54      0.0546    126.1372
#   55      0.0004    130.5338
#   56      0.0271    135.3299
#   57      0.0001    140.6720
#   58      0.0156    146.8234
#   59      0.0000    154.3613
#   60      0.0122    165.2817
   0    8.24666E+01    1.0000000000000000
   1    7.32386E+01    0.8880999582198028
   2    6.27656E+01    0.7611029485599802
   3    5.44687E+01    0.6604938783267332
   4    4.77211E+01    0.5786714836110056
   5    4.19567E+01    0.5087715670639020
   6    3.70627E+01    0.4494261006946507
   7    3.27455E+01    0.3970756649421697
   8    2.90857E+01    0.3526965214429428
   9    2.59753E+01    0.3149795894891812
  10    2.33248E+01    0.2828397082402445
  11    2.10315E+01    0.2550304309417578
  12    1.90149E+01    0.2305763678338472
  13    1.71644E+01    0.2081374727418988
  14    1.56238E+01    0.1894565736001390
  15    1.43188E+01    0.1736312364953628
  16    1.31848E+01    0.1598798265470915
  17    1.21353E+01    0.1471544586807535
  18    1.12571E+01    0.1365043181668114
  19    1.04776E+01    0.1270526860264910
  20    9.83458E+00    0.1192552554954576
  21    9.21384E+00    0.1117281120073844
  22    8.67633E+00    0.1052102168440777
  23    8.13460E+00    0.0986411467406618
  24    7.71026E+00    0.0934955434113003
  25    7.26414E+00    0.0880858101467477
  26    6.92774E+00    0.0840065260999029
  27    6.50496E+00    0.0788798635257510
  28    6.22699E+00    0.0755092139026918
  29    5.83037E+00    0.0706997533562118
  30    5.62425E+00    0.0682002502062662
  31    5.24843E+00    0.0636430449920829
  32    5.08571E+00    0.0616698610104202
  33    4.73209E+00    0.0573818206481784
  34    4.60405E+00    0.0558292426689031
  35    4.27378E+00    0.0518243668833027
  36    4.17849E+00    0.0506688038340063
  37    3.84142E+00    0.0465815066489890
  38    3.79635E+00    0.0460349895918055
  39    3.42966E+00    0.0415884363657107
  40    3.43509E+00    0.0416542497746888
  41    3.02429E+00    0.0366728499269922
  42    3.09901E+00    0.0375789278824859
  43    2.66463E+00    0.0323116173076602
  44    2.75296E+00    0.0333826873351765
  45    2.30704E+00    0.0279753926062926
  46    2.51900E+00    0.0305456887166398
  47    1.90689E+00    0.0231232223443788
  48    2.31980E+00    0.0281301043077663
  49    1.54219E+00    0.0187007868392518
  50    2.21093E+00    0.0268099840073823
  51    1.14801E+00    0.0139208549406536
  52    2.49782E+00    0.0302888423442054
