  # July 4, 2014 09:19:42
 # jmin,jmax    0   50
 # Eau     0.00200000
 # r0,ra,rb,rdel,tol,Bau,mu   3.5000  25.0000  25.0000   4.0000  1.0000E-03  3.0130E-07  6.8548E+03
 # parity bigJ  0  0        1  0        1  1        2  0        2  1        2  2        3  0        3  1        3  2        3  3
 # jmin,jmax,maxlamb are            0          50         100
 # j and jp are          27          47
 # lam  B-lambda(j,jp)  angle
#   20     15.1395      7.0813
#   21      0.7440     12.5011
#   22      6.2447     16.3731
#   23      0.4494     19.6380
#   24      3.9778     22.5631
#   25      0.3127     25.2689
#   26      2.8258     27.8215
#   27      0.2490     30.2619
#   28      2.1317     32.6171
#   29      0.1947     34.9067
#   30      1.7523     37.1446
#   31      0.1476     39.3419
#   32      1.5242     41.5071
#   33      0.1081     43.6471
#   34      1.2053     45.7676
#   35      0.0754     47.8735
#   36      0.8411     49.9688
#   37      0.0510     52.0573
#   38      0.5554     54.1422
#   39      0.0356     56.2264
#   40      0.3826     58.3127
#   41      0.0254     60.4035
#   42      0.2739     62.5013
#   43      0.0169     64.6084
#   44      0.2033     66.7271
#   45      0.0106     68.8596
#   46      0.1792     71.0083
#   47      0.0064     73.1755
#   48      0.1555     75.3634
#   49      0.0035     77.5747
#   50      0.0995     79.8119
#   51      0.0016     82.0777
#   52      0.0455     84.3753
#   53      0.0007     86.7078
#   54      0.0185     89.0786
#   55      0.0003     91.4918
#   56      0.0080     93.9517
#   57      0.0001     96.4630
#   58      0.0029     99.0312
#   59      0.0000    101.6627
#   60      0.0007    104.3647
#   61      0.0000    107.1457
#   62      0.0001    110.0156
#   63      0.0000    112.9867
#   64      0.0000    116.0734
#   65      0.0000    119.2942
#   66      0.0000    122.6722
#   67      0.0000    126.2376
#   68      0.0000    130.0312
#   69      0.0000    134.1101
#   70      0.0000    138.5591
#   71      0.0000    143.5143
#   72      0.0000    149.2198
#   73      0.0000    156.2106
#   74      0.0000    166.3360
   0    2.78356E+01    1.0000000000000000
   1    2.40292E+01    0.8632538072570248
   2    1.84172E+01    0.6616415407375783
   3    1.33093E+01    0.4781407031310472
   4    9.78965E+00    0.3516959730786748
   5    7.67161E+00    0.2756047944548576
   6    6.38917E+00    0.2295328096801007
   7    5.57897E+00    0.2004259765714858
   8    5.03282E+00    0.1808054702714037
   9    4.54810E+00    0.1633915815079049
  10    4.00163E+00    0.1437597423424275
  11    3.44628E+00    0.1238085623235361
  12    3.01725E+00    0.1083954462033416
  13    2.76262E+00    0.0992479429844829
  14    2.60979E+00    0.0937575275659602
  15    2.47053E+00    0.0887545264383108
  16    2.32169E+00    0.0834075162812797
  17    2.17885E+00    0.0782758521578648
  18    2.04177E+00    0.0733509802317348
  19    1.89862E+00    0.0682086004571577
  20    1.75964E+00    0.0632156199369384
  21    1.65097E+00    0.0593116241066012
  22    1.57881E+00    0.0567191137478678
  23    1.52188E+00    0.0546741123933719
  24    1.45950E+00    0.0524329092816756
  25    1.39096E+00    0.0499705117105997
  26    1.32588E+00    0.0476327489605137
  27    1.26825E+00    0.0455623260125044
  28    1.21526E+00    0.0436587125896198
  29    1.16489E+00    0.0418488548335556
  30    1.11849E+00    0.0401819182023310
  31    1.07755E+00    0.0387111034153283
  32    1.04126E+00    0.0374074135174306
  33    1.00743E+00    0.0361921639559317
  34    9.74558E-01    0.0350112494474434
  35    9.42286E-01    0.0338518919124727
  36    9.11132E-01    0.0327326506586500
  37    8.81453E-01    0.0316664239000421
  38    8.53607E-01    0.0306660513558122
  39    8.27568E-01    0.0297306162700371
  40    8.03118E-01    0.0288522195269207
  41    7.80095E-01    0.0280251127105157
  42    7.57783E-01    0.0272235525754125
  43    7.32896E-01    0.0263294952427926
  44    7.11741E-01    0.0255694818547819
  45    6.77929E-01    0.0243547704263277
  46    6.57051E-01    0.0236047213921534
  47    6.32161E-01    0.0227105380879362
  48    6.26275E-01    0.0224991141327590
  49    5.75215E-01    0.0206647438074713
  50    6.87437E-01    0.0246963633285477
  51    5.80753E-01    0.0208636957668814
  52    7.85676E-01    0.0282256236070832
  53    5.84851E-01    0.0210109186272610
  54    8.49634E-01    0.0305233400587761
