  # July 4, 2014 09:19:42
 # jmin,jmax    0   50
 # Eau     0.00200000
 # r0,ra,rb,rdel,tol,Bau,mu   3.5000  25.0000  25.0000   4.0000  1.0000E-03  3.0130E-07  6.8548E+03
 # parity bigJ  0  0        1  0        1  1        2  0        2  1        2  2        3  0        3  1        3  2        3  3
 # jmin,jmax,maxlamb are            0          50         100
 # j and jp are          24          38
 # lam  B-lambda(j,jp)  angle
#   14     27.6198      6.9726
#   15      3.0718     12.3934
#   16      9.7097     16.3155
#   17      1.4833     19.6607
#   18      5.7263     22.6889
#   19      0.9107     25.5162
#   20      3.8215     28.2059
#   21      0.6387     30.7973
#   22      2.6711     33.3160
#   23      0.4780     35.7805
#   24      2.0051     38.2042
#   25      0.3506     40.5975
#   26      1.6156     42.9686
#   27      0.2322     45.3242
#   28      1.2836     47.6699
#   29      0.1362     50.0105
#   30      1.0166     52.3502
#   31      0.0815     54.6929
#   32      0.8692     57.0420
#   33      0.0581     59.4009
#   34      0.7043     61.7726
#   35      0.0445     64.1603
#   36      0.5029     66.5669
#   37      0.0337     68.9956
#   38      0.3803     71.4494
#   39      0.0259     73.9317
#   40      0.3192     76.4458
#   41      0.0198     78.9955
#   42      0.2749     81.5848
#   43      0.0145     84.2179
#   44      0.2227     86.8997
#   45      0.0101     89.6354
#   46      0.1601     92.4312
#   47      0.0068     95.2937
#   48      0.1229     98.2310
#   49      0.0043    101.2522
#   50      0.1090    104.3681
#   51      0.0022    107.5919
#   52      0.0806    110.9394
#   53      0.0010    114.4302
#   54      0.0428    118.0895
#   55      0.0004    121.9499
#   56      0.0199    126.0551
#   57      0.0001    130.4670
#   58      0.0104    135.2771
#   59      0.0000    140.6318
#   60      0.0050    146.7948
#   61      0.0000    154.3432
#   62      0.0024    165.2741
   0    4.09932E+01    1.0000000000000000
   1    3.40241E+01    0.8299949980400187
   2    2.59307E+01    0.6325602868052423
   3    2.00715E+01    0.4896307210717536
   4    1.60406E+01    0.3912986073659959
   5    1.31035E+01    0.3196507762756970
   6    1.10154E+01    0.2687125766245980
   7    9.40788E+00    0.2294985380257372
   8    8.07654E+00    0.1970214343997374
   9    7.00239E+00    0.1708183938972670
  10    6.13516E+00    0.1496630312987896
  11    5.42772E+00    0.1324053619199222
  12    4.89007E+00    0.1192898089248035
  13    4.41322E+00    0.1076573274284515
  14    3.95897E+00    0.0965764117588087
  15    3.58574E+00    0.0874716983299322
  16    3.32293E+00    0.0810604731443322
  17    3.07663E+00    0.0750522306621486
  18    2.83355E+00    0.0691225535899428
  19    2.58933E+00    0.0631647956272643
  20    2.38810E+00    0.0582560198218220
  21    2.21090E+00    0.0539332473227660
  22    2.09215E+00    0.0510365298727494
  23    1.97347E+00    0.0481414100137201
  24    1.87652E+00    0.0457763631648190
  25    1.75188E+00    0.0427358254288307
  26    1.66645E+00    0.0406518264359771
  27    1.56253E+00    0.0381168409842544
  28    1.51255E+00    0.0368976285709685
  29    1.41471E+00    0.0345108565183586
  30    1.39028E+00    0.0339148222102485
  31    1.27839E+00    0.0311854526624316
  32    1.29161E+00    0.0315079658703742
  33    1.16109E+00    0.0283238605948551
  34    1.20885E+00    0.0294891678714369
  35    1.06543E+00    0.0259905236537624
  36    1.12986E+00    0.0275621090663895
  37    9.87187E-01    0.0240817258471791
  38    1.06727E+00    0.0260352132446024
  39    8.96902E-01    0.0218792858760483
  40    1.02399E+00    0.0249794782074821
  41    8.05078E-01    0.0196393117560051
  42    9.94524E-01    0.0242607219574489
  43    6.74304E-01    0.0164491702147021
  44    9.17172E-01    0.0223737772146847
  45    5.91837E-01    0.0144374429933635
  46    9.67967E-01    0.0236128719582590
  47    4.04821E-01    0.0098753139662022
  48    1.36558E+00    0.0333122818847766
