  # July 4, 2014 09:19:42
 # jmin,jmax    0   50
 # Eau     0.00200000
 # r0,ra,rb,rdel,tol,Bau,mu   3.5000  25.0000  25.0000   4.0000  1.0000E-03  3.0130E-07  6.8548E+03
 # parity bigJ  0  0        1  0        1  1        2  0        2  1        2  2        3  0        3  1        3  2        3  3
 # jmin,jmax,maxlamb are            0          50         100
 # j and jp are          20          47
 # lam  B-lambda(j,jp)  angle
#   27     10.9362      9.5202
#   28      0.2617     16.7717
#   29      4.6539     21.9255
#   30      0.1431     26.2529
#   31      2.9605     30.1169
#   32      0.1015     33.6819
#   33      2.1969     37.0388
#   34      0.0721     40.2441
#   35      1.6969     43.3359
#   36      0.0481     46.3415
#   37      1.2547     49.2811
#   38      0.0305     52.1708
#   39      0.8996     55.0232
#   40      0.0176     57.8490
#   41      0.6249     60.6573
#   42      0.0094     63.4560
#   43      0.4346     66.2523
#   44      0.0056     69.0528
#   45      0.3012     71.8637
#   46      0.0037     74.6912
#   47      0.1800     77.5412
#   48      0.0024     80.4199
#   49      0.0915     83.3337
#   50      0.0015     86.2892
#   51      0.0524     89.2936
#   52      0.0009     92.3551
#   53      0.0333     95.4824
#   54      0.0004     98.6858
#   55      0.0163    101.9770
#   56      0.0001    105.3698
#   57      0.0057    108.8811
#   58      0.0000    112.5314
#   59      0.0019    116.3467
#   60      0.0000    120.3607
#   61      0.0008    124.6184
#   62      0.0000    129.1832
#   63      0.0003    134.1487
#   64      0.0000    139.6649
#   65      0.0001    146.0010
#   66      0.0000    153.7471
#   67      0.0000    164.9459
   0    2.71616E+01    1.0000000000000000
   1    2.25293E+01    0.8294564614903940
   2    1.61169E+01    0.5933714489181400
   3    1.08588E+01    0.3997870090296158
   4    7.73162E+00    0.2846527193626899
   5    6.14399E+00    0.2262014607939088
   6    5.24940E+00    0.1932657354235132
   7    4.58663E+00    0.1688645881920043
   8    4.02490E+00    0.1481835689509240
   9    3.55428E+00    0.1308568511176426
  10    3.16100E+00    0.1163777132351461
  11    2.81648E+00    0.1036933938167683
  12    2.52578E+00    0.0929907882673428
  13    2.31538E+00    0.0852447769433515
  14    2.17040E+00    0.0799069294928124
  15    2.04125E+00    0.0751522362565137
  16    1.90864E+00    0.0702699867414404
  17    1.78938E+00    0.0658792011368489
  18    1.69172E+00    0.0622834618684495
  19    1.60199E+00    0.0589800433804088
  20    1.51172E+00    0.0556566733295726
  21    1.42548E+00    0.0524815774351024
  22    1.35059E+00    0.0497242176368889
  23    1.28464E+00    0.0472962593637079
  24    1.22475E+00    0.0450911390284815
  25    1.16638E+00    0.0429423886415513
  26    1.11237E+00    0.0409537692345215
  27    1.06005E+00    0.0390276024717767
  28    1.01419E+00    0.0373392480106166
  29    9.70355E-01    0.0357252792160749
  30    9.35150E-01    0.0344291455940956
  31    9.01075E-01    0.0331746293273327
  32    8.80865E-01    0.0324305587238214
  33    8.49367E-01    0.0312709041942604
  34    8.50731E-01    0.0313211332642272
  35    7.98118E-01    0.0293840854953044
  36    8.14432E-01    0.0299847188949602
  37    7.56761E-01    0.0278614369354710
  38    7.92878E-01    0.0291911599329183
  39    6.15932E-01    0.0226765842649722
  40    8.94348E-01    0.0329269581896506
