  # July 4, 2014 09:19:42
 # jmin,jmax    0   50
 # Eau     0.00200000
 # r0,ra,rb,rdel,tol,Bau,mu   3.5000  25.0000  25.0000   4.0000  1.0000E-03  3.0130E-07  6.8548E+03
 # parity bigJ  0  0        1  0        1  1        2  0        2  1        2  2        3  0        3  1        3  2        3  3
 # jmin,jmax,maxlamb are            0          50         100
 # j and jp are          32          33
 # lam  B-lambda(j,jp)  angle
#    1   1277.4104      1.7365
#    2     10.8923      3.8839
#    3    224.9938      5.7621
#    4      6.1397      7.5753
#    5     99.3085      9.3624
#    6      3.8809     11.1374
#    7     57.1424     12.9065
#    8      2.8482     14.6732
#    9     36.1659     16.4397
#   10      2.1684     18.2075
#   11     24.3624     19.9777
#   12      1.7100     21.7513
#   13     17.1256     23.5290
#   14      1.3270     25.3115
#   15     12.2250     27.0996
#   16      1.0544     28.8938
#   17      8.9756     30.6948
#   18      0.8171     32.5031
#   19      6.5663     34.3194
#   20      0.5884     36.1444
#   21      4.7317     37.9786
#   22      0.4083     39.8227
#   23      3.6054     41.6775
#   24      0.3035     43.5436
#   25      2.7938     45.4217
#   26      0.2416     47.3127
#   27      2.1265     49.2173
#   28      0.1859     51.1364
#   29      1.7268     53.0709
#   30      0.1400     55.0217
#   31      1.4068     56.9899
#   32      0.1071     58.9766
#   33      1.1293     60.9829
#   34      0.0825     63.0100
#   35      0.9372     65.0592
#   36      0.0635     67.1321
#   37      0.7971     69.2301
#   38      0.0478     71.3549
#   39      0.7020     73.5083
#   40      0.0336     75.6923
#   41      0.5779     77.9091
#   42      0.0221     80.1612
#   43      0.3912     82.4510
#   44      0.0142     84.7817
#   45      0.2440     87.1564
#   46      0.0091     89.5789
#   47      0.1693     92.0533
#   48      0.0056     94.5843
#   49      0.1098     97.1774
#   50      0.0033     99.8388
#   51      0.0629    102.5758
#   52      0.0019    105.3968
#   53      0.0420    108.3122
#   54      0.0009    111.3340
#   55      0.0275    114.4772
#   56      0.0003    117.7606
#   57      0.0125    121.2079
#   58      0.0001    124.8499
#   59      0.0040    128.7286
#   60      0.0000    132.9025
#   61      0.0015    137.4590
#   62      0.0000    142.5376
#   63      0.0007    148.3895
#   64      0.0000    155.5645
#   65      0.0004    165.9638
   0    1.78234E+02    1.0000000000000000
   1    1.64808E+02    0.9246703113853234
   2    1.46148E+02    0.8199785096296495
   3    1.29520E+02    0.7266851250431068
   4    1.16476E+02    0.6535002816400496
   5    1.05739E+02    0.5932606224761470
   6    9.65423E+01    0.5416592466485969
   7    8.89248E+01    0.4989207321114159
   8    8.28844E+01    0.4650301707752820
   9    7.80021E+01    0.4376375348859838
  10    7.37823E+01    0.4139621440547840
  11    7.00393E+01    0.3929620393939366
  12    6.67808E+01    0.3746799388804657
  13    6.39278E+01    0.3586727185877431
  14    6.13315E+01    0.3441060533478527
  15    5.88943E+01    0.3304318180511327
  16    5.66338E+01    0.3177487528837037
  17    5.46064E+01    0.3063739547218997
  18    5.27857E+01    0.2961591341043704
  19    5.10757E+01    0.2865648700531878
  20    4.94590E+01    0.2774943423786275
  21    4.79706E+01    0.2691436304591795
  22    4.66002E+01    0.2614547069018288
  23    4.52900E+01    0.2541038925105220
  24    4.40287E+01    0.2470269524622842
  25    4.28236E+01    0.2402656421369593
  26    4.16800E+01    0.2338493817456239
  27    4.05836E+01    0.2276981760410273
  28    3.95501E+01    0.2218995513468389
  29    3.85758E+01    0.2164331686477932
  30    3.76665E+01    0.2113314490692161
  31    3.67763E+01    0.2063368768540328
  32    3.59222E+01    0.2015449133778894
  33    3.50580E+01    0.1966962268491987
  34    3.42580E+01    0.1922074285121149
  35    3.34479E+01    0.1876623150017779
  36    3.27298E+01    0.1836332292503413
  37    3.19845E+01    0.1794519684327175
  38    3.13312E+01    0.1757864413889771
  39    3.06338E+01    0.1718736673207675
  40    3.00400E+01    0.1685419666038993
  41    2.93662E+01    0.1647615437673017
  42    2.88537E+01    0.1618862937510174
  43    2.81803E+01    0.1581083678972422
  44    2.77408E+01    0.1556419773203883
  45    2.70779E+01    0.1519228981643119
  46    2.66961E+01    0.1497807154726219
  47    2.60058E+01    0.1459076068825919
  48    2.57826E+01    0.1446553174668110
  49    2.49534E+01    0.1400033055408168
  50    2.49236E+01    0.1398360191208139
  51    2.39570E+01    0.1344126954554540
  52    2.41396E+01    0.1354372567494354
  53    2.30910E+01    0.1295539538451978
  54    2.33711E+01    0.1311254999510027
  55    2.21506E+01    0.1242776809240138
  56    2.27054E+01    0.1273907759988714
  57    2.13046E+01    0.1195314956255150
  58    2.22647E+01    0.1249181641037360
  59    2.04330E+01    0.1146413272631333
  60    2.21965E+01    0.1245353692816717
  61    1.95087E+01    0.1094555166559740
  62    2.33981E+01    0.1312769193285405
  63    1.78264E+01    0.1000166523159443
  64    3.09227E+01    0.1734946546616159
