  # July 4, 2014 09:19:42
 # jmin,jmax    0   50
 # Eau     0.00200000
 # r0,ra,rb,rdel,tol,Bau,mu   3.5000  25.0000  25.0000   4.0000  1.0000E-03  3.0130E-07  6.8548E+03
 # parity bigJ  0  0        1  0        1  1        2  0        2  1        2  2        3  0        3  1        3  2        3  3
 # jmin,jmax,maxlamb are            0          50         100
 # j and jp are          26          38
 # lam  B-lambda(j,jp)  angle
#   12     43.1142      6.2085
#   13      4.5321     11.0711
#   14     14.3902     14.6103
#   15      1.9600     17.6441
#   16      8.2163     20.4018
#   17      1.2474     22.9854
#   18      5.2615     25.4505
#   19      0.8645     27.8309
#   20      3.6344     30.1492
#   21      0.6496     32.4209
#   22      2.6014     34.6578
#   23      0.5105     36.8686
#   24      1.9729     39.0602
#   25      0.3889     41.2384
#   26      1.5515     43.4076
#   27      0.2635     45.5720
#   28      1.1907     47.7350
#   29      0.1528     49.8996
#   30      0.9545     52.0687
#   31      0.0873     54.2448
#   32      0.8551     56.4303
#   33      0.0615     58.6277
#   34      0.7032     60.8391
#   35      0.0488     63.0670
#   36      0.5017     65.3134
#   37      0.0380     67.5809
#   38      0.3820     69.8717
#   39      0.0294     72.1884
#   40      0.3221     74.5337
#   41      0.0226     76.9104
#   42      0.2760     79.3215
#   43      0.0165     81.7704
#   44      0.2193     84.2607
#   45      0.0115     86.7965
#   46      0.1558     89.3821
#   47      0.0078     92.0227
#   48      0.1215     94.7239
#   49      0.0048     97.4924
#   50      0.1066    100.3357
#   51      0.0025    103.2627
#   52      0.0749    106.2839
#   53      0.0011    109.4120
#   54      0.0377    112.6624
#   55      0.0004    116.0543
#   56      0.0171    119.6121
#   57      0.0002    123.3677
#   58      0.0085    127.3638
#   59      0.0000    131.6606
#   60      0.0036    136.3477
#   61      0.0000    141.5680
#   62      0.0011    147.5791
#   63      0.0000    154.9445
#   64      0.0003    165.6141
   0    5.01524E+01    1.0000000000000000
   1    4.32351E+01    0.8620744696309507
   2    3.45662E+01    0.6892229146650117
   3    2.77796E+01    0.5539030015794949
   4    2.28778E+01    0.4561647311160232
   5    1.90991E+01    0.3808205390699981
   6    1.62113E+01    0.3232407336189524
   7    1.39718E+01    0.2785874651537236
   8    1.21293E+01    0.2418496498432680
   9    1.06247E+01    0.2118479999680023
  10    9.41231E+00    0.1876740649222882
  11    8.39150E+00    0.1673199200021011
  12    7.53303E+00    0.1502027269385563
  13    6.80485E+00    0.1356834584563376
  14    6.13965E+00    0.1224198851691612
  15    5.55337E+00    0.1107298722322496
  16    5.10624E+00    0.1018143533079599
  17    4.74681E+00    0.0946477008239304
  18    4.39086E+00    0.0875503964455262
  19    4.02704E+00    0.0802960397850281
  20    3.69968E+00    0.0737687078853312
  21    3.42136E+00    0.0682192301984878
  22    3.20094E+00    0.0638243162867506
  23    3.01377E+00    0.0600921171650746
  24    2.84794E+00    0.0567857786323159
  25    2.67117E+00    0.0532609728448315
  26    2.51283E+00    0.0501038374930299
  27    2.36280E+00    0.0471123196595795
  28    2.25353E+00    0.0449336925231182
  29    2.14131E+00    0.0426960551938589
  30    2.05823E+00    0.0410394634441765
  31    1.95576E+00    0.0389964106002977
  32    1.89223E+00    0.0377296469506123
  33    1.79530E+00    0.0357968867128282
  34    1.76113E+00    0.0351154852360449
  35    1.64955E+00    0.0328907309430023
  36    1.65024E+00    0.0329045694030826
  37    1.51114E+00    0.0301309141741099
  38    1.54332E+00    0.0307725475710268
  39    1.38848E+00    0.0276851634997919
  40    1.43119E+00    0.0285368172182780
  41    1.27277E+00    0.0253780573467217
  42    1.34177E+00    0.0267537984889970
  43    1.14828E+00    0.0228958784059131
  44    1.26522E+00    0.0252274273788437
  45    1.01800E+00    0.0202981857902453
  46    1.23223E+00    0.0245697402446306
  47    9.05359E-01    0.0180521512596353
  48    1.11958E+00    0.0223234844399517
  49    7.41711E-01    0.0147891368155188
  50    1.18510E+00    0.0236298854740462
  51    4.70865E-01    0.0093886854535751
  52    1.44662E+00    0.0288445624069630
