  # July 4, 2014 09:19:42
 # jmin,jmax    0   50
 # Eau     0.00200000
 # r0,ra,rb,rdel,tol,Bau,mu   3.5000  25.0000  25.0000   4.0000  1.0000E-03  3.0130E-07  6.8548E+03
 # parity bigJ  0  0        1  0        1  1        2  0        2  1        2  2        3  0        3  1        3  2        3  3
 # jmin,jmax,maxlamb are            0          50         100
 # j and jp are          25          35
 # lam  B-lambda(j,jp)  angle
#   10     68.1171      6.0173
#   11      5.4609     10.7853
#   12     21.5845     14.2861
#   13      2.3796     17.3096
#   14     11.1279     20.0755
#   15      1.3953     22.6810
#   16      6.7362     25.1786
#   17      0.8699     27.6003
#   18      4.3612     29.9672
#   19      0.4856     32.2941
#   20      2.9308     34.5919
#   21      0.2484     36.8687
#   22      2.1011     39.1312
#   23      0.1493     41.3847
#   24      1.6318     43.6335
#   25      0.1112     45.8816
#   26      1.3323     48.1322
#   27      0.0886     50.3885
#   28      1.1014     52.6531
#   29      0.0713     54.9288
#   30      0.8893     57.2180
#   31      0.0589     59.5232
#   32      0.7693     61.8468
#   33      0.0491     64.1914
#   34      0.6685     66.5595
#   35      0.0396     68.9537
#   36      0.4995     71.3769
#   37      0.0314     73.8318
#   38      0.3725     76.3218
#   39      0.0248     78.8503
#   40      0.3125     81.4210
#   41      0.0190     84.0380
#   42      0.2734     86.7060
#   43      0.0140     89.4302
#   44      0.2273     92.2164
#   45      0.0098     95.0715
#   46      0.1678     98.0032
#   47      0.0066    101.0207
#   48      0.1265    104.1347
#   49      0.0041    107.3584
#   50      0.1134    110.7075
#   51      0.0022    114.2018
#   52      0.0914    117.8663
#   53      0.0010    121.7339
#   54      0.0536    125.8485
#   55      0.0004    130.2721
#   56      0.0265    135.0966
#   57      0.0001    140.4692
#   58      0.0153    146.6546
#   59      0.0000    154.2326
#   60      0.0118    165.2095
   0    6.28829E+01    1.0000000000000000
   1    5.43881E+01    0.8649118715069485
   2    4.50401E+01    0.7162540856423077
   3    3.80012E+01    0.6043180088670046
   4    3.25035E+01    0.5168899245029944
   5    2.78963E+01    0.4436232397738647
   6    2.40439E+01    0.3823601970388004
   7    2.06712E+01    0.3287256151362741
   8    1.78929E+01    0.2845434175099369
   9    1.56482E+01    0.2488469844675494
  10    1.38665E+01    0.2205129582988690
  11    1.24391E+01    0.1978134085871128
  12    1.12557E+01    0.1789953495729991
  13    1.01550E+01    0.1614913485794036
  14    9.24982E+00    0.1470960150043325
  15    8.47857E+00    0.1348311458521818
  16    7.79280E+00    0.1239256164836506
  17    7.11501E+00    0.1131471069737940
  18    6.54790E+00    0.1041285636993766
  19    6.04349E+00    0.0961070962566848
  20    5.65761E+00    0.0899706910718172
  21    5.28318E+00    0.0840162023081305
  22    4.97537E+00    0.0791211933147377
  23    4.63907E+00    0.0737731791824222
  24    4.39887E+00    0.0699534230119901
  25    4.12441E+00    0.0655888225140182
  26    3.95478E+00    0.0628911516728788
  27    3.68863E+00    0.0586588300357809
  28    3.55886E+00    0.0565951416601009
  29    3.29796E+00    0.0524461600395758
  30    3.22572E+00    0.0512972510165106
  31    2.97552E+00    0.0473183887779975
  32    2.93450E+00    0.0466661540909801
  33    2.69101E+00    0.0427940873069097
  34    2.66809E+00    0.0424295583324140
  35    2.43387E+00    0.0387048247606990
  36    2.43834E+00    0.0387759183842456
  37    2.18696E+00    0.0347783494249666
  38    2.24220E+00    0.0356568075120796
  39    1.95753E+00    0.0311297697011390
  40    2.06642E+00    0.0328613877090566
  41    1.72591E+00    0.0274464636853842
  42    1.90105E+00    0.0302316699090375
  43    1.55057E+00    0.0246580183859174
  44    1.73675E+00    0.0276188927136090
  45    1.31374E+00    0.0208918631522388
  46    1.68107E+00    0.0267334292515286
  47    1.05020E+00    0.0167008510336607
  48    1.64156E+00    0.0261050063658987
  49    7.43264E-01    0.0118198204800610
  50    1.93169E+00    0.0307187869132940
