  # July 4, 2014 09:19:42
 # jmin,jmax    0   50
 # Eau     0.00200000
 # r0,ra,rb,rdel,tol,Bau,mu   3.5000  25.0000  25.0000   4.0000  1.0000E-03  3.0130E-07  6.8548E+03
 # parity bigJ  0  0        1  0        1  1        2  0        2  1        2  2        3  0        3  1        3  2        3  3
 # jmin,jmax,maxlamb are            0          50         100
 # j and jp are          21          29
 # lam  B-lambda(j,jp)  angle
#    8    105.0151      6.4294
#    9      1.9477     11.6172
#   10     28.7898     15.4762
#   11      0.8618     18.8458
#   12     13.0253     21.9572
#   13      0.4315     24.9117
#   14      7.1637     27.7638
#   15      0.2464     30.5466
#   16      4.5371     33.2821
#   17      0.1609     35.9856
#   18      3.0920     38.6686
#   19      0.1181     41.3400
#   20      2.2770     44.0068
#   21      0.0921     46.6752
#   22      1.8146     49.3503
#   23      0.0748     52.0369
#   24      1.4264     54.7392
#   25      0.0624     57.4615
#   26      1.1922     60.2078
#   27      0.0526     62.9822
#   28      1.0256     65.7887
#   29      0.0438     68.6318
#   30      0.8506     71.5159
#   31      0.0357     74.4461
#   32      0.7128     77.4278
#   33      0.0287     80.4668
#   34      0.6492     83.5700
#   35      0.0225     86.7448
#   36      0.5302     90.0000
#   37      0.0173     93.3457
#   38      0.3881     96.7939
#   39      0.0132    100.3589
#   40      0.3210    104.0582
#   41      0.0098    107.9133
#   42      0.2963    111.9517
#   43      0.0069    116.2092
#   44      0.2759    120.7339
#   45      0.0045    125.5935
#   46      0.2478    130.8884
#   47      0.0027    136.7793
#   48      0.2254    143.5555
#   49      0.0013    151.8507
#   50      0.3368    163.8603
   0    8.00694E+01    1.0000000000000000
   1    6.54411E+01    0.8173045751047178
   2    5.61238E+01    0.7009399100312975
   3    4.78958E+01    0.5981782509997770
   4    4.25909E+01    0.5319245078255409
   5    3.69666E+01    0.4616822653320793
   6    3.27999E+01    0.4096434570139757
   7    2.84443E+01    0.3552460748371803
   8    2.55440E+01    0.3190233806367394
   9    2.24062E+01    0.2798343430114150
  10    2.02244E+01    0.2525864691238858
  11    1.79305E+01    0.2239369662663469
  12    1.64692E+01    0.2056866579191340
  13    1.47067E+01    0.1836744910878467
  14    1.36141E+01    0.1700288897466289
  15    1.22803E+01    0.1533707132912299
  16    1.15501E+01    0.1442507687844981
  17    1.04313E+01    0.1302781988930220
  18    9.87517E+00    0.1233325800007115
  19    8.96379E+00    0.1119502033778516
  20    8.61999E+00    0.1076565106677386
  21    7.81530E+00    0.0976065496112235
  22    7.55737E+00    0.0943852391836674
  23    6.81391E+00    0.0850999994779721
  24    6.64537E+00    0.0829951347027283
  25    5.95923E+00    0.0744258100240781
  26    5.87172E+00    0.0733328770850538
  27    5.23527E+00    0.0653841707431336
  28    5.20720E+00    0.0650336279435150
  29    4.59796E+00    0.0574246599653602
  30    4.59648E+00    0.0574061933011964
  31    4.00063E+00    0.0499645933735052
  32    4.09927E+00    0.0511964702185267
  33    3.41308E+00    0.0426264991146176
  34    3.67095E+00    0.0458471340230636
  35    2.86103E+00    0.0357318669521410
  36    3.22388E+00    0.0402635812969060
  37    2.35533E+00    0.0294161408166133
  38    2.90720E+00    0.0363084564921127
  39    1.85903E+00    0.0232177258830075
  40    2.67032E+00    0.0333500581122665
  41    1.30785E+00    0.0163339517541144
  42    2.89794E+00    0.0361928317172499
