  # July 4, 2014 09:19:42
 # jmin,jmax    0   50
 # Eau     0.00200000
 # r0,ra,rb,rdel,tol,Bau,mu   3.5000  25.0000  25.0000   4.0000  1.0000E-03  3.0130E-07  6.8548E+03
 # parity bigJ  0  0        1  0        1  1        2  0        2  1        2  2        3  0        3  1        3  2        3  3
 # jmin,jmax,maxlamb are            0          50         100
 # j and jp are          23          31
 # lam  B-lambda(j,jp)  angle
#    8    113.8310      5.9520
#    9      4.2086     10.7511
#   10     30.7264     14.3192
#   11      1.7168     17.4330
#   12     14.0516     20.3062
#   13      0.8109     23.0324
#   14      7.7730     25.6620
#   15      0.3854     28.2254
#   16      4.8953     30.7426
#   17      0.2219     33.2278
#   18      3.3082     35.6911
#   19      0.1549     38.1406
#   20      2.4310     40.5825
#   21      0.1181     43.0220
#   22      1.9077     45.4637
#   23      0.0962     47.9113
#   24      1.4841     50.3685
#   25      0.0812     52.8386
#   26      1.2315     55.3245
#   27      0.0676     57.8295
#   28      1.0507     60.3565
#   29      0.0552     62.9086
#   30      0.8617     65.4888
#   31      0.0455     68.1006
#   32      0.7261     70.7473
#   33      0.0371     73.4328
#   34      0.6524     76.1611
#   35      0.0292     78.9366
#   36      0.5125     81.7643
#   37      0.0228     84.6497
#   38      0.3741     87.5990
#   39      0.0177     90.6194
#   40      0.3104     93.7191
#   41      0.0134     96.9078
#   42      0.2783    100.1968
#   43      0.0098    103.5998
#   44      0.2453    107.1335
#   45      0.0068    110.8186
#   46      0.1986    114.6815
#   47      0.0044    118.7565
#   48      0.1542    123.0899
#   49      0.0026    127.7467
#   50      0.1441    132.8233
#   51      0.0013    138.4744
#   52      0.1533    144.9779
#   53      0.0005    152.9429
#   54      0.1833    164.4780
   0    8.07115E+01    1.0000000000000000
   1    6.84776E+01    0.8484250953038619
   2    5.88933E+01    0.7296772745664180
   3    5.08885E+01    0.6304990612535950
   4    4.52357E+01    0.5604617818279712
   5    3.98049E+01    0.4931755415551061
   6    3.53886E+01    0.4384575838085423
   7    3.10868E+01    0.3851599442168303
   8    2.77160E+01    0.3433962855172824
   9    2.45884E+01    0.3046451563817498
  10    2.22013E+01    0.2750693719303882
  11    1.97466E+01    0.2446567132412151
  12    1.79989E+01    0.2230035605466264
  13    1.62311E+01    0.2010998741433784
  14    1.49648E+01    0.1854105646805086
  15    1.35325E+01    0.1676654502518291
  16    1.25861E+01    0.1559395210305322
  17    1.14888E+01    0.1423437403424540
  18    1.07914E+01    0.1337035044018452
  19    9.85162E+00    0.1220596700281330
  20    9.28499E+00    0.1150392247651037
  21    8.53065E+00    0.1056931928115582
  22    8.13019E+00    0.1007315156361050
  23    7.48269E+00    0.0927091055233654
  24    7.14713E+00    0.0885515417023184
  25    6.55458E+00    0.0812099871612093
  26    6.30867E+00    0.0781632589135981
  27    5.76231E+00    0.0713939221639054
  28    5.60269E+00    0.0694163392913029
  29    5.08207E+00    0.0629658858185039
  30    5.00221E+00    0.0619763864962828
  31    4.49036E+00    0.0556346968338870
  32    4.46595E+00    0.0553322646184226
  33    3.94740E+00    0.0489075697725380
  34    3.98062E+00    0.0493191271588383
  35    3.47825E+00    0.0430948330578234
  36    3.53187E+00    0.0437592097149573
  37    3.01788E+00    0.0373909381155050
  38    3.17211E+00    0.0393018145211048
  39    2.51901E+00    0.0312100774218210
  40    2.86212E+00    0.0354611512520628
  41    2.11986E+00    0.0262647047079051
  42    2.61680E+00    0.0324216341188215
  43    1.68718E+00    0.0209038039955004
  44    2.44344E+00    0.0302738038127583
  45    1.21531E+00    0.0150575183804917
  46    2.70903E+00    0.0335643757978932
