  # July 4, 2014 09:19:42
 # jmin,jmax    0   50
 # Eau     0.00200000
 # r0,ra,rb,rdel,tol,Bau,mu   3.5000  25.0000  25.0000   4.0000  1.0000E-03  3.0130E-07  6.8548E+03
 # parity bigJ  0  0        1  0        1  1        2  0        2  1        2  2        3  0        3  1        3  2        3  3
 # jmin,jmax,maxlamb are            0          50         100
 # j and jp are          20          36
 # lam  B-lambda(j,jp)  angle
#   16     18.6422      8.3650
#   17      1.3067     14.8427
#   18      6.6158     19.5127
#   19      0.7230     23.4850
#   20      4.0191     27.0733
#   21      0.4563     30.4187
#   22      2.8240     33.5985
#   23      0.2985     36.6607
#   24      2.0466     39.6374
#   25      0.1878     42.5512
#   26      1.5370     45.4194
#   27      0.1154     48.2552
#   28      1.1768     51.0694
#   29      0.0729     53.8710
#   30      0.9019     56.6675
#   31      0.0488     59.4659
#   32      0.7673     62.2725
#   33      0.0358     65.0930
#   34      0.6828     67.9330
#   35      0.0282     70.7982
#   36      0.5155     73.6941
#   37      0.0225     76.6266
#   38      0.3763     79.6016
#   39      0.0176     82.6258
#   40      0.3138     85.7062
#   41      0.0134     88.8509
#   42      0.2760     92.0687
#   43      0.0099     95.3701
#   44      0.2343     98.7669
#   45      0.0069    102.2735
#   46      0.1795    105.9072
#   47      0.0045    109.6892
#   48      0.1367    113.6465
#   49      0.0028    117.8141
#   50      0.1257    122.2391
#   51      0.0015    126.9874
#   52      0.1139    132.1568
#   53      0.0006    137.9039
#   54      0.0826    144.5101
#   55      0.0002    152.5920
#   56      0.0693    164.2852
   0    3.47725E+01    1.0000000000000000
   1    2.61204E+01    0.7511803791925381
   2    1.90808E+01    0.5487312652444895
   3    1.42904E+01    0.4109695799315881
   4    1.12487E+01    0.3234941973482789
   5    9.04884E+00    0.2602298223760448
   6    7.55114E+00    0.2171583420264979
   7    6.32056E+00    0.1817690499889262
   8    5.53848E+00    0.1592777283752914
   9    4.79781E+00    0.1379772543498785
  10    4.39882E+00    0.1265028367056230
  11    3.88625E+00    0.1117621597808706
  12    3.48626E+00    0.1002591387497765
  13    3.03412E+00    0.0872561717292690
  14    2.84892E+00    0.0819303440073803
  15    2.54946E+00    0.0733183575246795
  16    2.42258E+00    0.0696693431210188
  17    2.11477E+00    0.0608173081520745
  18    2.03436E+00    0.0585047750537818
  19    1.79313E+00    0.0515675976231767
  20    1.80181E+00    0.0518171737069554
  21    1.57399E+00    0.0452654177354322
  22    1.58894E+00    0.0456952906679026
  23    1.36352E+00    0.0392125057529603
  24    1.40851E+00    0.0405065593478304
  25    1.20917E+00    0.0347738426209190
  26    1.27054E+00    0.0365385542966139
  27    1.07633E+00    0.0309534671023844
  28    1.16276E+00    0.0334391826264999
  29    9.59911E-01    0.0276054705916400
  30    1.09507E+00    0.0314924115565034
  31    8.58749E-01    0.0246961990621007
  32    1.04585E+00    0.0300769196646937
  33    7.69896E-01    0.0221409576361668
  34    1.02762E+00    0.0295526211662588
  35    6.95544E-01    0.0200027171867037
  36    9.65738E-01    0.0277730396431797
  37    6.16016E-01    0.0177155966576108
  38    1.07264E+00    0.0308473852881869
  39    4.31913E-01    0.0124211229521621
  40    1.34650E+00    0.0387230370433270
