  # July 4, 2014 09:19:42
 # jmin,jmax    0   50
 # Eau     0.00200000
 # r0,ra,rb,rdel,tol,Bau,mu   3.5000  25.0000  25.0000   4.0000  1.0000E-03  3.0130E-07  6.8548E+03
 # parity bigJ  0  0        1  0        1  1        2  0        2  1        2  2        3  0        3  1        3  2        3  3
 # jmin,jmax,maxlamb are            0          50         100
 # j and jp are          16          41
 # lam  B-lambda(j,jp)  angle
#   25     11.9671     10.9171
#   26      0.1408     19.2807
#   27      4.3554     25.2493
#   28      0.1134     30.2827
#   29      2.5363     34.7975
#   30      0.0839     38.9824
#   31      1.8609     42.9420
#   32      0.0608     46.7419
#   33      1.4221     50.4265
#   34      0.0434     54.0281
#   35      1.0939     57.5715
#   36      0.0315     61.0762
#   37      0.8627     64.5589
#   38      0.0231     68.0339
#   39      0.7223     71.5140
#   40      0.0159     75.0114
#   41      0.5979     78.5380
#   42      0.0099     82.1055
#   43      0.4204     85.7264
#   44      0.0060     89.4140
#   45      0.2664     93.1829
#   46      0.0038     97.0501
#   47      0.1861    101.0352
#   48      0.0023    105.1620
#   49      0.1273    109.4598
#   50      0.0013    113.9666
#   51      0.0773    118.7326
#   52      0.0007    123.8281
#   53      0.0547    129.3566
#   54      0.0003    135.4835
#   55      0.0442    142.5055
#   56      0.0001    151.0731
#   57      0.0383    163.4404
   0    3.07415E+01    1.0000000000000000
   1    2.26225E+01    0.7358935647287524
   2    1.50338E+01    0.4890383763467201
   3    1.06819E+01    0.3474739748104064
   4    8.67811E+00    0.2822929918093497
   5    7.18888E+00    0.2338493400225930
   6    5.97966E+00    0.1945143457747785
   7    4.99267E+00    0.1624081727480890
   8    4.38027E+00    0.1424870613205753
   9    3.82941E+00    0.1245681115907279
  10    3.39118E+00    0.1103127473324670
  11    2.91578E+00    0.0948483330809247
  12    2.67199E+00    0.0869178528087021
  13    2.43135E+00    0.0790899929678873
  14    2.28342E+00    0.0742780655661174
  15    2.03852E+00    0.0663115492178173
  16    1.92986E+00    0.0627769179857161
  17    1.73647E+00    0.0564861747126016
  18    1.65729E+00    0.0539103839015673
  19    1.46900E+00    0.0477855307088837
  20    1.41224E+00    0.0459391375026683
  21    1.24255E+00    0.0404192646549270
  22    1.22362E+00    0.0398036345081171
  23    1.05672E+00    0.0343742658557087
  24    1.09396E+00    0.0355857840646558
  25    9.06414E-01    0.0294850314926437
  26    1.02017E+00    0.0331854071157444
  27    8.00519E-01    0.0260403197683328
  28    9.75802E-01    0.0317421689994177
  29    7.03059E-01    0.0228700185486324
  30    1.06625E+00    0.0346842750175439
  31    4.75092E-01    0.0154544291300892
  32    1.40594E+00    0.0457341780819999
