  # July 4, 2014 09:19:42
 # jmin,jmax    0   50
 # Eau     0.00200000
 # r0,ra,rb,rdel,tol,Bau,mu   3.5000  25.0000  25.0000   4.0000  1.0000E-03  3.0130E-07  6.8548E+03
 # parity bigJ  0  0        1  0        1  1        2  0        2  1        2  2        3  0        3  1        3  2        3  3
 # jmin,jmax,maxlamb are            0          50         100
 # j and jp are          26          40
 # lam  B-lambda(j,jp)  angle
#   14     29.9272      6.5376
#   15      3.6991     11.6164
#   16      9.7243     15.2895
#   17      1.8636     18.4207
#   18      5.7337     21.2534
#   19      1.1788     23.8965
#   20      4.1325     26.4094
#   21      0.8214     28.8285
#   22      2.9380     31.1780
#   23      0.6153     33.4749
#   24      2.2250     35.7317
#   25      0.4849     37.9581
#   26      1.8187     40.1616
#   27      0.3881     42.3482
#   28      1.4588     44.5230
#   29      0.2953     46.6903
#   30      1.0664     48.8538
#   31      0.1970     51.0169
#   32      0.8022     53.1826
#   33      0.1126     55.3535
#   34      0.6355     57.5323
#   35      0.0637     59.7214
#   36      0.4856     61.9233
#   37      0.0435     64.1403
#   38      0.3813     66.3747
#   39      0.0325     68.6289
#   40      0.3249     70.9055
#   41      0.0238     73.2069
#   42      0.2834     75.5360
#   43      0.0173     77.8954
#   44      0.2183     80.2884
#   45      0.0123     82.7182
#   46      0.1501     85.1884
#   47      0.0083     87.7032
#   48      0.1202     90.2670
#   49      0.0050     92.8848
#   50      0.1034     95.5622
#   51      0.0025     98.3059
#   52      0.0673    101.1233
#   53      0.0011    104.0233
#   54      0.0317    107.0163
#   55      0.0004    110.1148
#   56      0.0142    113.3342
#   57      0.0002    116.6935
#   58      0.0068    120.2168
#   59      0.0000    123.9355
#   60      0.0025    127.8923
#   61      0.0000    132.1466
#   62      0.0006    136.7870
#   63      0.0000    141.9551
#   64      0.0001    147.9058
#   65      0.0000    155.1969
#   66      0.0001    165.7581
   0    4.16119E+01    1.0000000000000000
   1    3.55978E+01    0.8554720430993297
   2    2.77314E+01    0.6664287876552198
   3    2.14164E+01    0.5146710121259378
   4    1.70435E+01    0.4095811160824143
   5    1.39070E+01    0.3342061714343775
   6    1.16928E+01    0.2809955696044374
   7    1.01764E+01    0.2445557586634377
   8    9.00695E+00    0.2164512636255392
   9    7.97323E+00    0.1916092727752766
  10    7.04157E+00    0.1692200584448071
  11    6.20689E+00    0.1491613651923430
  12    5.49343E+00    0.1320159010863255
  13    4.94699E+00    0.1188839735854314
  14    4.52621E+00    0.1087719716566054
  15    4.13355E+00    0.0993358626573536
  16    3.75473E+00    0.0902322202632224
  17    3.42678E+00    0.0823510390051783
  18    3.13318E+00    0.0752951833506986
  19    2.84103E+00    0.0682745597467137
  20    2.57291E+00    0.0618309937451990
  21    2.36224E+00    0.0567682964413443
  22    2.20359E+00    0.0529557883337285
  23    2.07066E+00    0.0497611800756735
  24    1.95201E+00    0.0469098739629152
  25    1.83978E+00    0.0442127158183347
  26    1.73315E+00    0.0416503122752771
  27    1.62731E+00    0.0391067609038695
  28    1.53445E+00    0.0368752894304639
  29    1.44613E+00    0.0347528291971966
  30    1.37371E+00    0.0330124110494184
  31    1.29431E+00    0.0311044316035197
  32    1.23067E+00    0.0295749683193664
  33    1.15589E+00    0.0277779592941228
  34    1.10653E+00    0.0265917426453832
  35    1.04389E+00    0.0250863144641327
  36    1.01758E+00    0.0244539961144416
  37    9.56779E-01    0.0229929243539421
  38    9.66754E-01    0.0232326264422796
  39    8.84528E-01    0.0212566195211242
  40    9.41559E-01    0.0226271611365130
  41    8.30725E-01    0.0199636470146946
  42    9.09881E-01    0.0218658837698640
  43    7.94898E-01    0.0191026541008822
  44    8.89492E-01    0.0213758929393316
  45    7.40454E-01    0.0177942736265380
  46    8.80735E-01    0.0211654612710074
  47    6.17666E-01    0.0148434843576264
  48    8.46397E-01    0.0203402669220469
  49    5.56392E-01    0.0133709795248333
  50    9.18536E-01    0.0220738659388575
  51    4.83040E-01    0.0116082117299389
  52    1.16823E+00    0.0280743538243826
