  # July 4, 2014 09:19:42
 # jmin,jmax    0   50
 # Eau     0.00200000
 # r0,ra,rb,rdel,tol,Bau,mu   3.5000  25.0000  25.0000   4.0000  1.0000E-03  3.0130E-07  6.8548E+03
 # parity bigJ  0  0        1  0        1  1        2  0        2  1        2  2        3  0        3  1        3  2        3  3
 # jmin,jmax,maxlamb are            0          50         100
 # j and jp are          18          49
 # lam  B-lambda(j,jp)  angle
#   31      7.5814     10.5140
#   32      0.0794     18.5130
#   33      3.3987     24.1887
#   34      0.0324     28.9483
#   35      2.3060     33.1940
#   36      0.0269     37.1087
#   37      1.7444     40.7933
#   38      0.0212     44.3110
#   39      1.2886     47.7046
#   40      0.0151     51.0049
#   41      0.8288     54.2349
#   42      0.0099     57.4129
#   43      0.4614     60.5539
#   44      0.0060     63.6702
#   45      0.2302     66.7729
#   46      0.0035     69.8717
#   47      0.0989     72.9756
#   48      0.0020     76.0934
#   49      0.0410     79.2333
#   50      0.0012     82.4040
#   51      0.0257     85.6142
#   52      0.0007     88.8733
#   53      0.0179     92.1913
#   54      0.0003     95.5796
#   55      0.0083     99.0510
#   56      0.0001    102.6204
#   57      0.0026    106.3056
#   58      0.0000    110.1283
#   59      0.0008    114.1156
#   60      0.0000    118.3024
#   61      0.0004    122.7358
#   62      0.0000    127.4810
#   63      0.0001    132.6348
#   64      0.0000    138.3518
#   65      0.0000    144.9099
#   66      0.0000    152.9175
#   67      0.0000    164.4819
   0    2.09064E+01    1.0000000000000000
   1    1.75905E+01    0.8413903829333148
   2    1.26910E+01    0.6070384083785894
   3    8.26392E+00    0.3952811571484453
   4    5.40357E+00    0.2584646584806549
   5    4.05821E+00    0.1941131204672487
   6    3.58894E+00    0.1716666585014520
   7    3.36251E+00    0.1608363042378273
   8    3.05806E+00    0.1462738242634211
   9    2.67095E+00    0.1277574567574089
  10    2.32124E+00    0.1110301014715530
  11    2.06966E+00    0.0989962035860144
  12    1.89331E+00    0.0905609655643391
  13    1.75795E+00    0.0840864502716630
  14    1.64936E+00    0.0788925167101702
  15    1.55533E+00    0.0743947851644848
  16    1.46313E+00    0.0699845380505732
  17    1.37192E+00    0.0656218008634035
  18    1.29034E+00    0.0617195682251911
  19    1.22217E+00    0.0584591446245651
  20    1.16428E+00    0.0556899984990462
  21    1.11147E+00    0.0531638916435764
  22    1.06252E+00    0.0508225994160953
  23    1.01666E+00    0.0486291185672397
  24    9.75308E-01    0.0466511059179999
  25    9.36961E-01    0.0448168729149877
  26    9.03484E-01    0.0432156258590320
  27    8.72935E-01    0.0417544041489982
  28    8.48014E-01    0.0405623663656127
  29    8.26312E-01    0.0395243106467281
  30    8.10305E-01    0.0387586720628177
  31    7.91090E-01    0.0378395594671351
  32    7.79107E-01    0.0372663705301831
  33    7.24122E-01    0.0346363556767161
  34    6.91975E-01    0.0330986812793075
  35    5.84389E-01    0.0279526226875552
  36    4.90924E-01    0.0234819805985482
