  # July 4, 2014 09:19:42
 # jmin,jmax    0   50
 # Eau     0.00200000
 # r0,ra,rb,rdel,tol,Bau,mu   3.5000  25.0000  25.0000   4.0000  1.0000E-03  3.0130E-07  6.8548E+03
 # parity bigJ  0  0        1  0        1  1        2  0        2  1        2  2        3  0        3  1        3  2        3  3
 # jmin,jmax,maxlamb are            0          50         100
 # j and jp are          24          49
 # lam  B-lambda(j,jp)  angle
#   25     14.7201      8.2132
#   26      0.9537     14.4654
#   27      6.5429     18.9099
#   28      0.3703     22.6409
#   29      4.4581     25.9709
#   30      0.1351     29.0409
#   31      3.2738     31.9289
#   32      0.0834     34.6831
#   33      2.5466     37.3359
#   34      0.0629     39.9102
#   35      2.0674     42.4231
#   36      0.0481     44.8877
#   37      1.7062     47.3145
#   38      0.0352     49.7118
#   39      1.2848     52.0869
#   40      0.0240     54.4457
#   41      0.8175     56.7935
#   42      0.0153     59.1350
#   43      0.4529     61.4744
#   44      0.0092     63.8157
#   45      0.2216     66.1624
#   46      0.0052     68.5182
#   47      0.0906     70.8865
#   48      0.0030     73.2707
#   49      0.0396     75.6742
#   50      0.0018     78.1004
#   51      0.0274     80.5532
#   52      0.0010     83.0361
#   53      0.0174     85.5534
#   54      0.0004     88.1094
#   55      0.0069     90.7089
#   56      0.0001     93.3572
#   57      0.0019     96.0602
#   58      0.0000     98.8246
#   59      0.0007    101.6582
#   60      0.0000    104.5698
#   61      0.0003    107.5701
#   62      0.0000    110.6714
#   63      0.0001    113.8892
#   64      0.0000    117.2424
#   65      0.0000    120.7550
#   66      0.0000    124.4581
#   67      0.0000    128.3939
#   68      0.0000    132.6213
#   69      0.0000    137.2278
#   70      0.0000    142.3535
#   71      0.0000    148.2502
#   72      0.0000    155.4693
#   73      0.0000    165.9180
   0    3.40785E+01    1.0000000000000000
   1    2.93858E+01    0.8622969499944663
   2    2.21465E+01    0.6498663910989627
   3    1.51741E+01    0.4452676539828965
   4    1.02953E+01    0.3021048126119513
   5    7.74068E+00    0.2271423061244338
   6    6.66905E+00    0.1956965664909665
   7    6.07793E+00    0.1783506875251084
   8    5.40184E+00    0.1585115843058550
   9    4.59373E+00    0.1347982176773122
  10    3.86467E+00    0.1134046581002924
  11    3.37713E+00    0.0990982957898760
  12    3.11212E+00    0.0913220695420084
  13    2.94182E+00    0.0863245907827928
  14    2.76702E+00    0.0811953976338112
  15    2.57069E+00    0.0754343986990912
  16    2.37680E+00    0.0697447989576872
  17    2.20341E+00    0.0646566937329842
  18    2.05747E+00    0.0603744769829862
  19    1.94250E+00    0.0570006529976367
  20    1.85356E+00    0.0543906995719974
  21    1.77532E+00    0.0520948272760311
  22    1.69508E+00    0.0497402690407483
  23    1.61396E+00    0.0473599692519719
  24    1.54153E+00    0.0452344794336063
  25    1.48333E+00    0.0435267991112233
  26    1.43688E+00    0.0421638316964975
  27    1.39664E+00    0.0409830962113313
  28    1.35917E+00    0.0398835634289310
  29    1.32372E+00    0.0388432274452562
  30    1.29043E+00    0.0378662438314333
  31    1.25909E+00    0.0369467559071046
  32    1.22918E+00    0.0360690535318450
  33    1.20015E+00    0.0352172658128615
  34    1.17181E+00    0.0343856960887758
  35    1.14397E+00    0.0335684986505092
  36    1.11710E+00    0.0327801218773001
  37    1.09052E+00    0.0320002216908569
  38    1.06552E+00    0.0312666778752070
  39    1.03959E+00    0.0305055738069337
  40    1.01402E+00    0.0297554038790803
  41    9.87493E-01    0.0289769793342527
  42    9.59441E-01    0.0281538176271677
  43    9.33527E-01    0.0273934023745920
  44    9.51251E-01    0.0279134904204510
  45    9.48926E-01    0.0278452746427200
  46    9.96124E-01    0.0292302329857098
  47    9.85371E-01    0.0289147027681242
  48    9.91495E-01    0.0290944016387872
