  # July 4, 2014 09:19:42
 # jmin,jmax    0   50
 # Eau     0.00200000
 # r0,ra,rb,rdel,tol,Bau,mu   3.5000  25.0000  25.0000   4.0000  1.0000E-03  3.0130E-07  6.8548E+03
 # parity bigJ  0  0        1  0        1  1        2  0        2  1        2  2        3  0        3  1        3  2        3  3
 # jmin,jmax,maxlamb are            0          50         100
 # j and jp are          22          26
 # lam  B-lambda(j,jp)  angle
#    4    586.2034      4.6912
#    5     14.5738      8.7879
#    6    118.6151     11.9874
#    7      4.8547     14.8839
#    8     43.1947     17.6313
#    9      1.8817     20.2941
#   10     19.8171     22.9058
#   11      0.8419     25.4861
#   12     10.3690     28.0478
#   13      0.4312     30.5999
#   14      6.0713     33.1488
#   15      0.2370     35.6998
#   16      3.9987     38.2572
#   17      0.1457     40.8245
#   18      2.8360     43.4050
#   19      0.1060     46.0019
#   20      2.1208     48.6179
#   21      0.0848     51.2560
#   22      1.7208     53.9189
#   23      0.0698     56.6097
#   24      1.3658     59.3315
#   25      0.0582     62.0874
#   26      1.1464     64.8810
#   27      0.0484     67.7161
#   28      0.9996     70.5966
#   29      0.0400     73.5273
#   30      0.8429     76.5131
#   31      0.0327     79.5598
#   32      0.7079     82.6738
#   33      0.0262     85.8626
#   34      0.6497     89.1348
#   35      0.0202     92.5003
#   36      0.5459     95.9711
#   37      0.0153     99.5616
#   38      0.4038    103.2892
#   39      0.0115    107.1757
#   40      0.3350    111.2488
#   41      0.0084    115.5444
#   42      0.3178    120.1113
#   43      0.0057    125.0176
#   44      0.3121    130.3650
#   45      0.0035    136.3159
#   46      0.3162    143.1626
#   47      0.0017    151.5460
#   48      0.4357    163.6861
   0    1.98555E+02    1.0000000000000000
   1    1.80155E+02    0.9073343085736421
   2    1.67243E+02    0.8423015431815619
   3    1.53876E+02    0.7749808588174539
   4    1.43096E+02    0.7206901189684847
   5    1.31223E+02    0.6608888591348931
   6    1.20929E+02    0.6090456522621588
   7    1.10541E+02    0.5567295808514559
   8    1.01892E+02    0.5131685110925769
   9    9.30941E+01    0.4688589459046695
  10    8.59134E+01    0.4326941678626847
  11    7.87898E+01    0.3968168440905666
  12    7.29729E+01    0.3675207783073751
  13    6.70627E+01    0.3377545712091165
  14    6.24066E+01    0.3143045563766456
  15    5.75750E+01    0.2899708234206493
  16    5.37477E+01    0.2706945798855618
  17    4.96804E+01    0.2502104430832069
  18    4.66100E+01    0.2347464177064400
  19    4.32064E+01    0.2176046625367151
  20    4.06582E+01    0.2047708638297696
  21    3.77249E+01    0.1899974607402834
  22    3.56346E+01    0.1794701884171527
  23    3.31204E+01    0.1668073335434760
  24    3.14031E+01    0.1581587141846105
  25    2.92102E+01    0.1471140585444289
  26    2.77624E+01    0.1398225886814084
  27    2.58000E+01    0.1299390109306347
  28    2.45725E+01    0.1237569333884552
  29    2.27693E+01    0.1146750790606810
  30    2.18076E+01    0.1098316954303806
  31    2.00367E+01    0.1009126920850369
  32    1.93081E+01    0.0972435035147147
  33    1.75451E+01    0.0883642217464018
  34    1.69840E+01    0.0855379581549373
  35    1.52608E+01    0.0768592144364590
  36    1.48558E+01    0.0748198210255420
  37    1.30288E+01    0.0656183039134064
  38    1.28198E+01    0.0645655861078459
  39    1.08938E+01    0.0548653011008606
  40    1.09135E+01    0.0549649353304798
  41    8.70293E+00    0.0438314217569104
  42    9.08144E+00    0.0457377323867441
  43    6.16586E+00    0.0310537376402727
  44    7.77791E+00    0.0391726489576295
