  # July 4, 2014 09:19:42
 # jmin,jmax    0   50
 # Eau     0.00200000
 # r0,ra,rb,rdel,tol,Bau,mu   3.5000  25.0000  25.0000   4.0000  1.0000E-03  3.0130E-07  6.8548E+03
 # parity bigJ  0  0        1  0        1  1        2  0        2  1        2  2        3  0        3  1        3  2        3  3
 # jmin,jmax,maxlamb are            0          50         100
 # j and jp are          30          33
 # lam  B-lambda(j,jp)  angle
#    3    354.7678      3.1043
#    4      5.9768      5.9477
#    5    111.7446      8.2217
#    6      3.8386     10.3118
#    7     59.4270     12.3134
#    8      2.5774     14.2656
#    9     36.8143     16.1877
#   10      1.9145     18.0911
#   11     24.1598     19.9828
#   12      1.5695     21.8675
#   13     16.7793     23.7486
#   14      1.2292     25.6287
#   15     11.7769     27.5098
#   16      0.9376     29.3936
#   17      8.4986     31.2815
#   18      0.6911     33.1748
#   19      6.3948     35.0745
#   20      0.4911     36.9818
#   21      4.6867     38.8977
#   22      0.3566     40.8231
#   23      3.5576     42.7591
#   24      0.2740     44.7064
#   25      2.7813     46.6663
#   26      0.2133     48.6396
#   27      2.1213     50.6273
#   28      0.1630     52.6306
#   29      1.7172     54.6506
#   30      0.1256     56.6883
#   31      1.4092     58.7452
#   32      0.0982     60.8224
#   33      1.1344     62.9213
#   34      0.0771     65.0436
#   35      0.9393     67.1907
#   36      0.0596     69.3644
#   37      0.7985     71.5666
#   38      0.0444     73.7994
#   39      0.7051     76.0649
#   40      0.0313     78.3657
#   41      0.5921     80.7044
#   42      0.0206     83.0842
#   43      0.4113     85.5082
#   44      0.0132     87.9803
#   45      0.2562     90.5048
#   46      0.0084     93.0864
#   47      0.1772     95.7307
#   48      0.0052     98.4440
#   49      0.1193    101.2337
#   50      0.0030    104.1085
#   51      0.0698    107.0788
#   52      0.0017    110.1569
#   53      0.0460    113.3581
#   54      0.0008    116.7013
#   55      0.0315    120.2108
#   56      0.0003    123.9178
#   57      0.0155    127.8651
#   58      0.0001    132.1121
#   59      0.0054    136.7475
#   60      0.0000    141.9133
#   61      0.0021    147.8648
#   62      0.0000    155.1608
#   63      0.0015    165.7344
   0    1.38886E+02    1.0000000000000000
   1    1.24648E+02    0.8974889190375857
   2    1.05783E+02    0.7616527448586594
   3    8.98314E+01    0.6468020946306199
   4    7.76543E+01    0.5591245685152862
   5    6.76683E+01    0.4872236858678045
   6    5.92289E+01    0.4264586382968492
   7    5.24372E+01    0.3775570415331901
   8    4.71855E+01    0.3397436093377161
   9    4.29225E+01    0.3090492982547186
  10    3.92390E+01    0.2825278420025070
  11    3.60810E+01    0.2597891902956609
  12    3.34482E+01    0.2408326589181027
  13    3.11996E+01    0.2246425764094668
  14    2.91804E+01    0.2101039227373913
  15    2.73348E+01    0.1968156158836076
  16    2.57295E+01    0.1852569663407833
  17    2.43487E+01    0.1753148595793302
  18    2.30879E+01    0.1662366733312053
  19    2.18972E+01    0.1576634301340075
  20    2.08332E+01    0.1500023880117294
  21    1.98861E+01    0.1431836724738134
  22    1.90177E+01    0.1369304396814461
  23    1.81967E+01    0.1310192819631776
  24    1.74514E+01    0.1256529384918849
  25    1.67543E+01    0.1206335880127273
  26    1.61241E+01    0.1160962785082255
  27    1.55270E+01    0.1117971177031060
  28    1.50164E+01    0.1081205662269830
  29    1.45133E+01    0.1044982128837329
  30    1.40741E+01    0.1013361395935565
  31    1.35889E+01    0.0978424856265487
  32    1.31779E+01    0.0948833549370213
  33    1.27283E+01    0.0916459337023706
  34    1.23876E+01    0.0891929147611197
  35    1.20084E+01    0.0864625654352502
  36    1.17440E+01    0.0845590426859697
  37    1.13996E+01    0.0820788709087731
  38    1.12011E+01    0.0806497695317228
  39    1.08510E+01    0.0781291692125607
  40    1.07205E+01    0.0771896785052189
  41    1.03682E+01    0.0746526738252941
  42    1.02886E+01    0.0740797005381582
  43    9.93299E+00    0.0715192660990635
  44    9.93697E+00    0.0715479654417404
  45    9.48847E+00    0.0683186400742062
  46    9.67956E+00    0.0696945479485264
  47    9.08216E+00    0.0653931671003933
  48    9.43953E+00    0.0679663060160020
  49    8.69408E+00    0.0625989369562127
  50    9.21568E+00    0.0663545371376246
  51    8.45557E+00    0.0608815948066172
  52    9.17260E+00    0.0660443288654902
  53    8.22421E+00    0.0592157423535907
  54    9.18709E+00    0.0661486739674799
  55    7.95115E+00    0.0572497014466019
  56    9.38780E+00    0.0675938176742465
  57    7.63864E+00    0.0549995209052005
  58    1.01140E+01    0.0728226503487888
  59    6.86456E+00    0.0494260356406460
  60    1.30200E+01    0.0937464795522614
