  # July 4, 2014 09:19:42
 # jmin,jmax    0   50
 # Eau     0.00200000
 # r0,ra,rb,rdel,tol,Bau,mu   3.5000  25.0000  25.0000   4.0000  1.0000E-03  3.0130E-07  6.8548E+03
 # parity bigJ  0  0        1  0        1  1        2  0        2  1        2  2        3  0        3  1        3  2        3  3
 # jmin,jmax,maxlamb are            0          50         100
 # j and jp are          19          46
 # lam  B-lambda(j,jp)  angle
#   27     10.8590      9.8641
#   28      0.2675     17.3837
#   29      4.7569     22.7308
#   30      0.1628     27.2230
#   31      2.9985     31.2368
#   32      0.1286     34.9425
#   33      1.9561     38.4345
#   34      0.0982     41.7715
#   35      1.2954     44.9930
#   36      0.0717     48.1274
#   37      0.9516     51.1962
#   38      0.0491     54.2160
#   39      0.7379     57.2003
#   40      0.0307     60.1604
#   41      0.4990     63.1061
#   42      0.0170     66.0461
#   43      0.3287     68.9881
#   44      0.0087     71.9397
#   45      0.2645     74.9079
#   46      0.0047     77.8999
#   47      0.1934     80.9227
#   48      0.0028     83.9838
#   49      0.1040     87.0910
#   50      0.0017     90.2529
#   51      0.0549     93.4788
#   52      0.0009     96.7795
#   53      0.0362    100.1673
#   54      0.0004    103.6564
#   55      0.0200    107.2642
#   56      0.0001    111.0119
#   57      0.0075    114.9260
#   58      0.0000    119.0411
#   59      0.0024    123.4034
#   60      0.0000    128.0774
#   61      0.0010    133.1590
#   62      0.0000    138.8011
#   63      0.0004    145.2788
#   64      0.0000    153.1945
#   65      0.0002    164.6344
   0    2.67402E+01    1.0000000000000000
   1    2.21215E+01    0.8272737332838535
   2    1.59900E+01    0.5979741177605306
   3    1.11435E+01    0.4167336620893909
   4    8.15361E+00    0.3049194517177811
   5    6.34555E+00    0.2373038042912197
   6    5.14308E+00    0.1923349056740593
   7    4.31244E+00    0.1612716369725853
   8    3.74276E+00    0.1399673099296585
   9    3.33519E+00    0.1247255361351913
  10    3.01423E+00    0.1127227864336197
  11    2.76020E+00    0.1032226675013369
  12    2.57865E+00    0.0964334265443102
  13    2.41946E+00    0.0904801146650315
  14    2.22347E+00    0.0831506287545444
  15    2.01434E+00    0.0753300052633503
  16    1.86303E+00    0.0696715225172905
  17    1.77457E+00    0.0663632813167271
  18    1.70108E+00    0.0636149179481331
  19    1.61098E+00    0.0602457269278551
  20    1.51889E+00    0.0568017625115236
  21    1.43770E+00    0.0537653756922798
  22    1.37165E+00    0.0512953000603330
  23    1.30907E+00    0.0489550156629048
  24    1.25149E+00    0.0468019290971647
  25    1.19231E+00    0.0445886327347718
  26    1.13964E+00    0.0426188007112258
  27    1.08249E+00    0.0404818787734797
  28    1.03598E+00    0.0387423412467989
  29    9.73551E-01    0.0364077681421745
  30    9.37275E-01    0.0350511450517110
  31    8.55563E-01    0.0319953701283144
  32    8.31103E-01    0.0310806266205346
  33    7.25805E-01    0.0271428332212357
  34    6.90015E-01    0.0258044087954749
  35    5.88415E-01    0.0220048575244851
  36    7.04733E-01    0.0263548200741075
  37    4.72170E-01    0.0176576683318557
  38    7.86634E-01    0.0294176519913767
