  # July 4, 2014 09:19:42
 # jmin,jmax    0   50
 # Eau     0.00200000
 # r0,ra,rb,rdel,tol,Bau,mu   3.5000  25.0000  25.0000   4.0000  1.0000E-03  3.0130E-07  6.8548E+03
 # parity bigJ  0  0        1  0        1  1        2  0        2  1        2  2        3  0        3  1        3  2        3  3
 # jmin,jmax,maxlamb are            0          50         100
 # j and jp are          27          40
 # lam  B-lambda(j,jp)  angle
#   13     52.7869      6.1848
#   14      2.9713     11.0063
#   15     22.2363     14.5029
#   16      1.6378     17.4907
#   17     13.9418     20.1991
#   18      1.0472     22.7305
#   19      9.5047     25.1404
#   20      0.7240     27.4632
#   21      6.3065     29.7213
#   22      0.5599     31.9305
#   23      4.5162     34.1027
#   24      0.4686     36.2466
#   25      3.4909     38.3692
#   26      0.3897     40.4760
#   27      2.6382     42.5719
#   28      0.2993     44.6606
#   29      2.0206     46.7456
#   30      0.2134     48.8300
#   31      1.5407     50.9163
#   32      0.1512     53.0071
#   33      1.1843     55.1046
#   34      0.1052     57.2111
#   35      0.9560     59.3287
#   36      0.0679     61.4594
#   37      0.8262     63.6053
#   38      0.0440     65.7685
#   39      0.7333     67.9510
#   40      0.0309     70.1551
#   41      0.5676     72.3829
#   42      0.0215     74.6369
#   43      0.3588     76.9196
#   44      0.0140     79.2338
#   45      0.2259     81.5824
#   46      0.0087     83.9685
#   47      0.1564     86.3957
#   48      0.0052     88.8679
#   49      0.0942     91.3895
#   50      0.0031     93.9653
#   51      0.0534     96.6010
#   52      0.0017     99.3030
#   53      0.0367    102.0786
#   54      0.0008    104.9366
#   55      0.0221    107.8873
#   56      0.0003    110.9429
#   57      0.0088    114.1187
#   58      0.0001    117.4334
#   59      0.0027    120.9109
#   60      0.0000    124.5823
#   61      0.0010    128.4896
#   62      0.0000    132.6917
#   63      0.0004    137.2762
#   64      0.0000    142.3832
#   65      0.0001    148.2646
#   66      0.0000    155.4721
#   67      0.0000    165.9139
   0    7.10184E+01    1.0000000000000000
   1    6.17200E+01    0.8690712933106761
   2    4.87172E+01    0.6859799828803107
   3    3.74851E+01    0.5278228586034273
   4    2.96124E+01    0.4169681357469954
   5    2.40771E+01    0.3390265838652903
   6    1.97964E+01    0.2787505005055597
   7    1.64303E+01    0.2313529696806807
   8    1.39535E+01    0.1964767352790089
   9    1.22081E+01    0.1719001221365468
  10    1.08661E+01    0.1530045495170909
  11    9.69030E+00    0.1364478733183538
  12    8.68319E+00    0.1222667787383941
  13    7.92787E+00    0.1116313176421140
  14    7.40828E+00    0.1043150162816220
  15    7.01171E+00    0.0987309379412293
  16    6.62190E+00    0.0932420302625982
  17    6.20313E+00    0.0873453975885291
  18    5.80957E+00    0.0818037582355020
  19    5.48214E+00    0.0771932097743047
  20    5.18647E+00    0.0730300215889466
  21    4.88370E+00    0.0687666890671462
  22    4.60001E+00    0.0647720612823058
  23    4.37283E+00    0.0615732603923656
  24    4.19750E+00    0.0591044127632045
  25    4.04387E+00    0.0569411432106614
  26    3.90352E+00    0.0549648857795594
  27    3.77625E+00    0.0531729038622895
  28    3.66096E+00    0.0515494566345575
  29    3.54385E+00    0.0499004436478818
  30    3.42457E+00    0.0482209443070786
  31    3.30228E+00    0.0464990078684633
  32    3.18946E+00    0.0449104211944389
  33    3.08220E+00    0.0433999973765771
  34    2.99269E+00    0.0421396136936462
  35    2.89895E+00    0.0408196780760073
  36    2.83169E+00    0.0398726364503423
  37    2.73790E+00    0.0385519342142393
  38    2.69192E+00    0.0379045284278807
  39    2.59906E+00    0.0365970561810695
  40    2.56996E+00    0.0361872913699561
  41    2.48845E+00    0.0350395699883198
  42    2.47864E+00    0.0349013390356730
  43    2.37634E+00    0.0334609613334357
  44    2.40948E+00    0.0339276306398511
  45    2.23215E+00    0.0314306513620000
  46    2.26743E+00    0.0319273537183297
  47    2.03566E+00    0.0286637890171538
  48    2.12600E+00    0.0299359306217064
  49    1.72020E+00    0.0242219605479516
  50    2.09750E+00    0.0295346174055787
  51    1.38440E+00    0.0194935117407406
  52    2.07285E+00    0.0291874707355684
  53    1.13211E+00    0.0159410609063589
  54    2.39995E+00    0.0337933133218047
