  # July 4, 2014 09:19:42
 # jmin,jmax    0   50
 # Eau     0.00200000
 # r0,ra,rb,rdel,tol,Bau,mu   3.5000  25.0000  25.0000   4.0000  1.0000E-03  3.0130E-07  6.8548E+03
 # parity bigJ  0  0        1  0        1  1        2  0        2  1        2  2        3  0        3  1        3  2        3  3
 # jmin,jmax,maxlamb are            0          50         100
 # j and jp are          16          20
 # lam  B-lambda(j,jp)  angle
#    4    462.8813      6.2269
#    5      6.3461     11.6762
#    6     93.5530     15.9389
#    7      1.9055     19.8061
#    8     34.0578     23.4834
#    9      0.6594     27.0578
#   10     15.6556     30.5753
#   11      0.2886     34.0635
#   12      8.3356     37.5414
#   13      0.1506     41.0226
#   14      5.0017     44.5180
#   15      0.0906     48.0370
#   16      3.3006     51.5879
#   17      0.0609     55.1789
#   18      2.4162     58.8178
#   19      0.0448     62.5131
#   20      1.8220     66.2733
#   21      0.0349     70.1083
#   22      1.5191     74.0289
#   23      0.0278     78.0473
#   24      1.2669     82.1779
#   25      0.0224     86.4378
#   26      1.0867     90.8476
#   27      0.0178     95.4327
#   28      1.0030    100.2252
#   29      0.0138    105.2670
#   30      0.9339    110.6144
#   31      0.0102    116.3463
#   32      0.8822    122.5796
#   33      0.0070    129.5020
#   34      0.9846    137.4510
#   35      0.0039    147.1667
#   36      1.6270    161.2201
   0    2.06562E+02    1.0000000000000000
   1    1.75596E+02    0.8500886303546312
   2    1.63495E+02    0.7915068683031533
   3    1.44061E+02    0.6974239651248281
   4    1.31802E+02    0.6380729185793285
   5    1.15861E+02    0.5609014912283250
   6    1.05395E+02    0.5102324224003281
   7    9.28937E+01    0.4497131098581981
   8    8.47083E+01    0.4100864268241399
   9    7.50227E+01    0.3631968225284209
  10    6.88782E+01    0.3334504075121206
  11    6.12572E+01    0.2965558131002626
  12    5.66432E+01    0.2742186155747464
  13    5.06452E+01    0.2451814670197044
  14    4.71540E+01    0.2282801955175656
  15    4.22716E+01    0.2046437189809721
  16    3.96524E+01    0.1919635217334507
  17    3.56236E+01    0.1724594247722303
  18    3.36733E+01    0.1630176960074575
  19    3.01717E+01    0.1460661132951691
  20    2.87229E+01    0.1390522298639817
  21    2.56150E+01    0.1240064807930024
  22    2.45942E+01    0.1190643142892528
  23    2.17448E+01    0.1052700798790215
  24    2.09751E+01    0.1015437979465843
  25    1.82461E+01    0.0883324254148506
  26    1.78137E+01    0.0862391444316504
  27    1.50427E+01    0.0728239865719671
  28    1.49193E+01    0.0722267573778397
  29    1.19072E+01    0.0576447468344401
  30    1.22941E+01    0.0595179227603689
  31    8.50420E+00    0.0411702011191961
  32    1.06039E+01    0.0513352157811388
