  # July 4, 2014 09:19:42
 # jmin,jmax    0   50
 # Eau     0.00200000
 # r0,ra,rb,rdel,tol,Bau,mu   3.5000  25.0000  25.0000   4.0000  1.0000E-03  3.0130E-07  6.8548E+03
 # parity bigJ  0  0        1  0        1  1        2  0        2  1        2  2        3  0        3  1        3  2        3  3
 # jmin,jmax,maxlamb are            0          50         100
 # j and jp are          31          46
 # lam  B-lambda(j,jp)  angle
#   15     43.3111      5.7937
#   16      3.6610     10.2739
#   17     18.0926     13.5029
#   18      3.2566     16.2464
#   19     11.8807     18.7209
#   20      2.4766     21.0230
#   21      8.6098     23.2056
#   22      1.5879     25.3011
#   23      6.0848     27.3309
#   24      1.1415     29.3103
#   25      4.4105     31.2502
#   26      0.8875     33.1589
#   27      3.5913     35.0431
#   28      0.6869     36.9080
#   29      2.9249     38.7579
#   30      0.5202     40.5963
#   31      2.1002     42.4263
#   32      0.3852     44.2506
#   33      1.4873     46.0714
#   34      0.2746     47.8909
#   35      1.2101     49.7108
#   36      0.1898     51.5330
#   37      1.0462     53.3590
#   38      0.1311     55.1904
#   39      0.7476     57.0286
#   40      0.0870     58.8750
#   41      0.3956     60.7310
#   42      0.0510     62.5980
#   43      0.2221     64.4773
#   44      0.0263     66.3703
#   45      0.1731     68.2784
#   46      0.0133     70.2031
#   47      0.1100     72.1460
#   48      0.0073     74.1085
#   49      0.0556     76.0923
#   50      0.0039     78.0993
#   51      0.0360     80.1312
#   52      0.0018     82.1902
#   53      0.0231     84.2784
#   54      0.0007     86.3983
#   55      0.0098     88.5523
#   56      0.0002     90.7434
#   57      0.0030     92.9747
#   58      0.0001     95.2499
#   59      0.0011     97.5729
#   60      0.0000     99.9482
#   61      0.0004    102.3809
#   62      0.0000    104.8771
#   63      0.0001    107.4435
#   64      0.0000    110.0882
#   65      0.0000    112.8208
#   66      0.0000    115.6529
#   67      0.0000    118.5984
#   68      0.0000    121.6750
#   69      0.0000    124.9049
#   70      0.0000    128.3172
#   71      0.0000    131.9511
#   72      0.0000    135.8617
#   73      0.0000    140.1306
#   74      0.0000    144.8888
#   75      0.0000    150.3716
#   76      0.0000    157.0941
#   77      0.0000    166.8364
   0    6.41458E+01    1.0000000000000000
   1    5.74831E+01    0.8961324092599162
   2    4.68400E+01    0.7302111619014809
   3    3.58064E+01    0.5582036964923446
   4    2.68887E+01    0.4191818846236013
   5    2.07573E+01    0.3235950749315550
   6    1.68115E+01    0.2620828306035572
   7    1.41413E+01    0.2204553290227572
   8    1.21122E+01    0.1888228938756536
   9    1.04620E+01    0.1630979085827877
  10    9.14980E+00    0.1426406749979260
  11    8.17422E+00    0.1274318759335852
  12    7.47060E+00    0.1164628826835015
  13    6.92020E+00    0.1078824030915672
  14    6.42874E+00    0.1002207216443644
  15    5.98013E+00    0.0932271920565128
  16    5.61267E+00    0.0874986279765660
  17    5.35192E+00    0.0834337303174955
  18    5.16686E+00    0.0805487622840886
  19    4.97987E+00    0.0776335730180962
  20    4.71857E+00    0.0735600296909364
  21    4.37288E+00    0.0681709001883962
  22    4.00861E+00    0.0624922295650868
  23    3.71448E+00    0.0579069057110825
  24    3.52628E+00    0.0549729571212448
  25    3.40551E+00    0.0530900946685405
  26    3.29044E+00    0.0512962757035205
  27    3.15528E+00    0.0491891651202297
  28    3.01508E+00    0.0470035293403470
  29    2.88923E+00    0.0450415623506762
  30    2.77741E+00    0.0432984295856073
  31    2.66886E+00    0.0416061174500915
  32    2.56017E+00    0.0399117850374854
  33    2.45737E+00    0.0383091980795077
  34    2.36580E+00    0.0368815513635824
  35    2.28394E+00    0.0356053936014879
  36    2.20642E+00    0.0343969110417139
  37    2.12951E+00    0.0331979920319925
  38    2.05314E+00    0.0320073546234940
  39    1.97931E+00    0.0308565063977723
  40    1.91010E+00    0.0297775206463206
  41    1.84667E+00    0.0287886690253617
  42    1.78937E+00    0.0278953359063410
  43    1.73810E+00    0.0270961094325348
  44    1.69270E+00    0.0263883798845743
  45    1.65266E+00    0.0257641350923332
  46    1.61872E+00    0.0252350916447043
  47    1.58864E+00    0.0247661404312601
  48    1.56566E+00    0.0244077903718765
  49    1.54620E+00    0.0241044605438120
  50    1.52693E+00    0.0238041128663179
  51    1.50959E+00    0.0235337266300422
  52    1.49611E+00    0.0233235738104094
  53    1.42810E+00    0.0222633827073567
  54    1.38875E+00    0.0216499602086601
  55    1.32491E+00    0.0206545985924244
  56    1.27395E+00    0.0198601586259908
  57    1.12110E+00    0.0174773228828820
  58    1.23273E+00    0.0192175908485105
  59    1.22128E+00    0.0190391684804377
  60    1.34672E+00    0.0209946481727827
  61    9.08062E-01    0.0141562267111294
  62    1.68938E+00    0.0263366335677010
