  # July 4, 2014 09:19:42
 # jmin,jmax    0   50
 # Eau     0.00200000
 # r0,ra,rb,rdel,tol,Bau,mu   3.5000  25.0000  25.0000   4.0000  1.0000E-03  3.0130E-07  6.8548E+03
 # parity bigJ  0  0        1  0        1  1        2  0        2  1        2  2        3  0        3  1        3  2        3  3
 # jmin,jmax,maxlamb are            0          50         100
 # j and jp are          20          49
 # lam  B-lambda(j,jp)  angle
#   29      9.4027      9.6644
#   30      0.3178     17.0139
#   31      4.2098     22.2298
#   32      0.0725     26.6034
#   33      2.8451     30.5037
#   34      0.0435     34.0981
#   35      2.1402     37.4791
#   36      0.0344     40.7042
#   37      1.6958     43.8123
#   38      0.0261     46.8311
#   39      1.2735     49.7815
#   40      0.0182     52.6796
#   41      0.8208     55.5384
#   42      0.0117     58.3688
#   43      0.4574     61.1800
#   44      0.0071     63.9800
#   45      0.2275     66.7762
#   46      0.0041     69.5753
#   47      0.0965     72.3836
#   48      0.0023     75.2072
#   49      0.0404     78.0522
#   50      0.0014     80.9249
#   51      0.0262     83.8315
#   52      0.0008     86.7788
#   53      0.0178     89.7741
#   54      0.0003     92.8253
#   55      0.0079     95.9413
#   56      0.0001     99.1323
#   57      0.0023    102.4100
#   58      0.0000    105.7883
#   59      0.0008    109.2837
#   60      0.0000    112.9168
#   61      0.0003    116.7134
#   62      0.0000    120.7070
#   63      0.0001    124.9425
#   64      0.0000    129.4828
#   65      0.0000    134.4209
#   66      0.0000    139.9058
#   67      0.0000    146.2053
#   68      0.0000    153.9057
#   69      0.0000    165.0368
   0    2.46999E+01    1.0000000000000000
   1    2.09380E+01    0.8476939806396719
   2    1.52928E+01    0.6191462152836612
   3    1.00864E+01    0.4083590702264595
   4    6.65182E+00    0.2693056161921627
   5    5.00133E+00    0.2024838874147559
   6    4.40172E+00    0.1782080883488991
   7    4.09330E+00    0.1657212103089893
   8    3.68510E+00    0.1491949706110570
   9    3.16957E+00    0.1283232892180860
  10    2.70424E+00    0.1094836959900237
  11    2.38541E+00    0.0965757291569555
  12    2.18691E+00    0.0885391454949332
  13    2.04202E+00    0.0826732383870325
  14    1.91579E+00    0.0775625494066713
  15    1.79922E+00    0.0728431927470697
  16    1.68613E+00    0.0682645925660026
  17    1.57660E+00    0.0638302594120916
  18    1.48093E+00    0.0599570057381461
  19    1.40627E+00    0.0569342027026908
  20    1.34757E+00    0.0545578338475316
  21    1.29495E+00    0.0524272789284153
  22    1.24368E+00    0.0503518159340921
  23    1.19449E+00    0.0483599726423556
  24    1.14915E+00    0.0465242871643035
  25    1.10753E+00    0.0448394279790891
  26    1.06908E+00    0.0432827683301441
  27    1.03248E+00    0.0418009088490517
  28    9.98097E-01    0.0404089428248851
  29    9.64669E-01    0.0390555856795514
  30    9.33880E-01    0.0378090453189971
  31    9.04241E-01    0.0366091129488862
  32    8.78854E-01    0.0355812676361414
  33    8.57329E-01    0.0347098253883519
  34    8.43252E-01    0.0341399044584581
  35    8.33185E-01    0.0337323442577118
  36    8.40062E-01    0.0340107627742489
  37    8.06318E-01    0.0326445768002059
  38    7.95848E-01    0.0322206816339809
  39    7.06353E-01    0.0285974135088734
  40    6.17845E-01    0.0250140692251163
