  # July 4, 2014 09:19:42
 # jmin,jmax    0   50
 # Eau     0.00200000
 # r0,ra,rb,rdel,tol,Bau,mu   3.5000  25.0000  25.0000   4.0000  1.0000E-03  3.0130E-07  6.8548E+03
 # parity bigJ  0  0        1  0        1  1        2  0        2  1        2  2        3  0        3  1        3  2        3  3
 # jmin,jmax,maxlamb are            0          50         100
 # j and jp are          24          34
 # lam  B-lambda(j,jp)  angle
#   10     64.1996      6.2269
#   11      4.1686     11.1624
#   12     20.5947     14.7871
#   13      1.7535     17.9183
#   14     10.4060     20.7835
#   15      1.0361     23.4834
#   16      6.3688     26.0722
#   17      0.7050     28.5834
#   18      4.2609     31.0386
#   19      0.4864     33.4534
#   20      3.0175     35.8390
#   21      0.3187     38.2041
#   22      2.1755     40.5555
#   23      0.2024     42.8988
#   24      1.6376     45.2387
#   25      0.1308     47.5794
#   26      1.3240     49.9244
#   27      0.0897     52.2770
#   28      1.0967     54.6403
#   29      0.0669     57.0171
#   30      0.8905     59.4104
#   31      0.0547     61.8230
#   32      0.7598     64.2575
#   33      0.0454     66.7170
#   34      0.6634     69.2044
#   35      0.0360     71.7228
#   36      0.5019     74.2756
#   37      0.0283     76.8664
#   38      0.3710     79.4991
#   39      0.0222     82.1779
#   40      0.3101     84.9078
#   41      0.0170     87.6939
#   42      0.2734     90.5425
#   43      0.0125     93.4603
#   44      0.2317     96.4553
#   45      0.0087     99.5369
#   46      0.1754    102.7162
#   47      0.0058    106.0064
#   48      0.1318    109.4236
#   49      0.0036    112.9881
#   50      0.1188    116.7252
#   51      0.0020    120.6684
#   52      0.1022    124.8624
#   53      0.0008    129.3704
#   54      0.0661    134.2857
#   55      0.0003    139.7584
#   56      0.0369    146.0577
#   57      0.0001    153.7739
#   58      0.0316    164.9495
   0    6.17914E+01    1.0000000000000000
   1    5.23252E+01    0.8468032669071539
   2    4.28125E+01    0.6928545041495002
   3    3.57172E+01    0.5780277844377786
   4    3.02800E+01    0.4900356867875573
   5    2.58756E+01    0.4187564120418426
   6    2.22935E+01    0.3607870141416168
   7    1.92012E+01    0.3107415570459349
   8    1.67782E+01    0.2715293945902280
   9    1.47466E+01    0.2386510988105411
  10    1.31761E+01    0.2132358555589067
  11    1.18148E+01    0.1912042418945467
  12    1.06102E+01    0.1717105608895111
  13    9.50186E+00    0.1537731521122788
  14    8.66758E+00    0.1402715917360979
  15    7.88863E+00    0.1276655445150396
  16    7.24475E+00    0.1172452661063290
  17    6.61752E+00    0.1070945074292229
  18    6.17056E+00    0.0998611083579910
  19    5.72251E+00    0.0926101488312806
  20    5.41940E+00    0.0877048042990493
  21    5.02190E+00    0.0812717423719955
  22    4.77124E+00    0.0772153256473823
  23    4.41887E+00    0.0715126242818875
  24    4.26771E+00    0.0690663610529137
  25    3.95723E+00    0.0640416854058875
  26    3.85275E+00    0.0623508472356145
  27    3.54996E+00    0.0574506299995860
  28    3.48191E+00    0.0563493998372521
  29    3.20193E+00    0.0518183526682909
  30    3.15408E+00    0.0510439158437810
  31    2.88240E+00    0.0466472123736000
  32    2.85551E+00    0.0462121155833068
  33    2.58228E+00    0.0417903286623764
  34    2.60022E+00    0.0420806482238944
  35    2.30120E+00    0.0372413878970521
  36    2.37182E+00    0.0383842734549703
  37    2.04505E+00    0.0330960161651915
  38    2.17851E+00    0.0352557926122131
  39    1.80901E+00    0.0292760795225965
  40    1.97716E+00    0.0319973772336280
  41    1.61223E+00    0.0260915407307643
  42    1.82161E+00    0.0294799163260960
  43    1.33962E+00    0.0216797774894119
  44    1.75580E+00    0.0284149714815008
  45    1.10096E+00    0.0178174381297628
  46    1.74434E+00    0.0282294864503133
  47    7.95846E-01    0.0128795641316813
  48    2.02252E+00    0.0327313565264784
