  # July 4, 2014 09:19:42
 # jmin,jmax    0   50
 # Eau     0.00200000
 # r0,ra,rb,rdel,tol,Bau,mu   3.5000  25.0000  25.0000   4.0000  1.0000E-03  3.0130E-07  6.8548E+03
 # parity bigJ  0  0        1  0        1  1        2  0        2  1        2  2        3  0        3  1        3  2        3  3
 # jmin,jmax,maxlamb are            0          50         100
 # j and jp are          24          37
 # lam  B-lambda(j,jp)  angle
#   13     52.5135      6.8084
#   14      1.7961     12.1212
#   15     21.4469     15.9766
#   16      1.0800     19.2735
#   17     12.5745     22.2644
#   18      0.7161     25.0623
#   19      7.9934     27.7287
#   20      0.4886     30.3011
#   21      5.5334     32.8047
#   22      0.3552     35.2572
#   23      4.0898     37.6715
#   24      0.2722     40.0576
#   25      3.0220     42.4235
#   26      0.2028     44.7756
#   27      2.2327     47.1193
#   28      0.1440     49.4592
#   29      1.7944     51.7995
#   30      0.1050     54.1438
#   31      1.4572     56.4956
#   32      0.0802     58.8580
#   33      1.1598     61.2341
#   34      0.0618     63.6270
#   35      0.9575     66.0395
#   36      0.0472     68.4747
#   37      0.8149     70.9358
#   38      0.0358     73.4259
#   39      0.7162     75.9485
#   40      0.0258     78.5073
#   41      0.5997     81.1062
#   42      0.0171     83.7495
#   43      0.4186     86.4420
#   44      0.0109     89.1890
#   45      0.2617     91.9966
#   46      0.0069     94.8716
#   47      0.1814     97.8219
#   48      0.0042    100.8568
#   49      0.1235    103.9872
#   50      0.0025    107.2261
#   51      0.0730    110.5894
#   52      0.0014    114.0971
#   53      0.0484    117.7742
#   54      0.0007    121.6536
#   55      0.0341    125.7792
#   56      0.0002    130.2132
#   57      0.0179    135.0475
#   58      0.0001    140.4295
#   59      0.0071    146.6240
#   60      0.0000    154.2112
#   61      0.0041    165.1988
   0    7.21316E+01    1.0000000000000000
   1    6.03949E+01    0.8372877478120396
   2    4.63031E+01    0.6419253409445886
   3    3.59640E+01    0.4985891338981944
   4    2.90956E+01    0.4033685632938221
   5    2.38241E+01    0.3302861897684767
   6    1.95123E+01    0.2705100769158176
   7    1.62839E+01    0.2257524920169943
   8    1.40587E+01    0.1949032062631177
   9    1.23473E+01    0.1711769848172778
  10    1.08943E+01    0.1510329983230126
  11    9.69584E+00    0.1344187821286571
  12    8.80243E+00    0.1220329324733324
  13    8.11186E+00    0.1124591945030054
  14    7.49918E+00    0.1039652707639766
  15    6.93380E+00    0.0961271380119471
  16    6.51752E+00    0.0903559776993359
  17    6.19393E+00    0.0858698109477202
  18    5.89379E+00    0.0817088711029123
  19    5.57159E+00    0.0772420652868471
  20    5.29431E+00    0.0733978703996760
  21    5.00991E+00    0.0694551671496394
  22    4.76752E+00    0.0660946839303459
  23    4.51706E+00    0.0626224746420587
  24    4.35062E+00    0.0603150641859798
  25    4.15670E+00    0.0576265482593428
  26    4.02980E+00    0.0558673231060677
  27    3.83611E+00    0.0531820980003568
  28    3.72348E+00    0.0516206460736869
  29    3.54273E+00    0.0491147795022730
  30    3.45807E+00    0.0479411521795703
  31    3.29013E+00    0.0456128349323034
  32    3.23168E+00    0.0448025674965541
  33    3.04798E+00    0.0422557524671961
  34    3.02610E+00    0.0419524424932212
  35    2.80327E+00    0.0388632237151064
  36    2.82383E+00    0.0391483524736362
  37    2.57181E+00    0.0356543744393678
  38    2.62375E+00    0.0363745196799670
  39    2.32912E+00    0.0322898940703668
  40    2.47781E+00    0.0343512991787192
  41    2.00828E+00    0.0278418705605503
  42    2.35593E+00    0.0326615212952289
  43    1.69379E+00    0.0234818829419035
  44    2.30125E+00    0.0319035421364035
  45    1.48269E+00    0.0205553854254916
  46    2.28964E+00    0.0317424974910998
  47    1.13039E+00    0.0156711832191144
  48    2.68221E+00    0.0371850159399697
