  # July 4, 2014 09:19:42
 # jmin,jmax    0   50
 # Eau     0.00200000
 # r0,ra,rb,rdel,tol,Bau,mu   3.5000  25.0000  25.0000   4.0000  1.0000E-03  3.0130E-07  6.8548E+03
 # parity bigJ  0  0        1  0        1  1        2  0        2  1        2  2        3  0        3  1        3  2        3  3
 # jmin,jmax,maxlamb are            0          50         100
 # j and jp are          26          44
 # lam  B-lambda(j,jp)  angle
#   18     15.6690      7.0706
#   19      1.4362     12.5044
#   20      5.7422     16.3997
#   21      1.0591     19.6944
#   22      3.3974     22.6547
#   23      0.7847     25.4001
#   24      2.4431     27.9964
#   25      0.5949     30.4838
#   26      2.0027     32.8895
#   27      0.4582     35.2325
#   28      1.5346     37.5268
#   29      0.3545     39.7833
#   30      1.1733     42.0103
#   31      0.2715     44.2148
#   32      0.9626     46.4025
#   33      0.2004     48.5782
#   34      0.7406     50.7461
#   35      0.1387     52.9098
#   36      0.5713     55.0728
#   37      0.0902     57.2379
#   38      0.4449     59.4080
#   39      0.0560     61.5859
#   40      0.3447     63.7740
#   41      0.0336     65.9749
#   42      0.2920     68.1911
#   43      0.0207     70.4251
#   44      0.2290     72.6794
#   45      0.0142     74.9567
#   46      0.1589     77.2597
#   47      0.0097     79.5914
#   48      0.1227     81.9549
#   49      0.0056     84.3535
#   50      0.0919     86.7908
#   51      0.0026     89.2710
#   52      0.0504     91.7984
#   53      0.0011     94.3781
#   54      0.0216     97.0157
#   55      0.0004     99.7176
#   56      0.0098    102.4913
#   57      0.0001    105.3455
#   58      0.0043    108.2905
#   59      0.0000    111.3386
#   60      0.0013    114.5049
#   61      0.0000    117.8080
#   62      0.0003    121.2718
#   63      0.0000    124.9272
#   64      0.0001    128.8159
#   65      0.0000    132.9965
#   66      0.0000    137.5558
#   67      0.0000    142.6330
#   68      0.0000    148.4783
#   69      0.0000    155.6395
#   70      0.0000    166.0110
   0    2.81797E+01    1.0000000000000000
   1    2.38407E+01    0.8460259473132035
   2    1.78539E+01    0.6335741371105130
   3    1.29098E+01    0.4581237425472041
   4    9.77047E+00    0.3467206849055979
   5    7.84284E+00    0.2783154072456690
   6    6.53535E+00    0.2319170953716732
   7    5.63274E+00    0.1998867476163963
   8    4.99524E+00    0.1772640009770020
   9    4.45893E+00    0.1582322416221749
  10    3.95556E+00    0.1403693309934858
  11    3.51229E+00    0.1246390823131627
  12    3.14545E+00    0.1116213827082814
  13    2.83434E+00    0.1005811520954860
  14    2.56761E+00    0.0911156480425589
  15    2.34563E+00    0.0832382189479508
  16    2.15225E+00    0.0763760996688749
  17    1.97338E+00    0.0700283238213685
  18    1.82414E+00    0.0647325479147899
  19    1.71824E+00    0.0609744096633552
  20    1.63436E+00    0.0579976842204282
  21    1.54409E+00    0.0547943862620491
  22    1.44831E+00    0.0513956552765205
  23    1.36068E+00    0.0482859774547166
  24    1.27892E+00    0.0453844687974599
  25    1.19316E+00    0.0423411162215496
  26    1.10767E+00    0.0393074408176180
  27    1.03596E+00    0.0367626527073109
  28    9.82715E-01    0.0348731899459151
  29    9.39667E-01    0.0333455577251889
  30    8.97172E-01    0.0318375712571831
  31    8.51870E-01    0.0302299442193502
  32    8.06174E-01    0.0286083555552417
  33    7.62498E-01    0.0270584567450716
  34    7.22764E-01    0.0256484120743146
  35    6.84589E-01    0.0242937319744713
  36    6.50976E-01    0.0231009182081117
  37    6.14049E-01    0.0217904930065107
  38    5.86424E-01    0.0208101806845548
  39    5.50404E-01    0.0195319628597276
  40    5.30749E-01    0.0188344672227127
  41    5.04256E-01    0.0178943065308243
  42    5.02225E-01    0.0178222618859145
  43    4.78381E-01    0.0169761152390921
  44    5.31911E-01    0.0188756911572902
  45    4.61012E-01    0.0163597231866015
  46    5.33507E-01    0.0189323432621077
  47    4.29217E-01    0.0152314343132995
  48    5.44933E-01    0.0193378197361452
  49    3.59238E-01    0.0127481160938723
  50    5.92377E-01    0.0210214335804063
  51    2.95163E-01    0.0104743175914256
  52    7.57939E-01    0.0268966553045329
