  # July 4, 2014 09:19:42
 # jmin,jmax    0   50
 # Eau     0.00200000
 # r0,ra,rb,rdel,tol,Bau,mu   3.5000  25.0000  25.0000   4.0000  1.0000E-03  3.0130E-07  6.8548E+03
 # parity bigJ  0  0        1  0        1  1        2  0        2  1        2  2        3  0        3  1        3  2        3  3
 # jmin,jmax,maxlamb are            0          50         100
 # j and jp are          28          44
 # lam  B-lambda(j,jp)  angle
#   16     21.1271      6.4294
#   17      2.6480     11.3906
#   18      7.4927     14.9597
#   19      1.7760     17.9877
#   20      4.5496     20.7153
#   21      1.2366     23.2505
#   22      3.0956     25.6523
#   23      0.8913     27.9572
#   24      2.4282     30.1891
#   25      0.6705     32.3651
#   26      2.0513     34.4977
#   27      0.5197     36.5964
#   28      1.5681     38.6686
#   29      0.4066     40.7205
#   30      1.2098     42.7568
#   31      0.3154     44.7819
#   32      0.9820     46.7993
#   33      0.2345     48.8121
#   34      0.7393     50.8232
#   35      0.1615     52.8350
#   36      0.5661     54.8498
#   37      0.1033     56.8700
#   38      0.4365     58.8974
#   39      0.0630     60.9342
#   40      0.3345     62.9822
#   41      0.0370     65.0433
#   42      0.2802     67.1196
#   43      0.0223     69.2129
#   44      0.2192     71.3252
#   45      0.0151     73.4587
#   46      0.1574     75.6155
#   47      0.0103     77.7979
#   48      0.1244     80.0083
#   49      0.0058     82.2494
#   50      0.0895     84.5241
#   51      0.0027     86.8353
#   52      0.0465     89.1866
#   53      0.0011     91.5817
#   54      0.0196     94.0249
#   55      0.0005     96.5210
#   56      0.0089     99.0753
#   57      0.0002    101.6940
#   58      0.0037    104.3845
#   59      0.0000    107.1551
#   60      0.0011    110.0157
#   61      0.0000    112.9785
#   62      0.0002    116.0582
#   63      0.0000    119.2728
#   64      0.0000    122.6457
#   65      0.0000    126.2071
#   66      0.0000    129.9977
#   67      0.0000    134.0748
#   68      0.0000    138.5234
#   69      0.0000    143.4795
#   70      0.0000    149.1877
#   71      0.0000    156.1837
#   72      0.0000    166.3191
   0    3.38039E+01    1.0000000000000000
   1    2.92240E+01    0.8645181335345860
   2    2.26364E+01    0.6696381830077413
   3    1.68163E+01    0.4974680003178971
   4    1.28319E+01    0.3796000109108767
   5    1.02913E+01    0.3044407426897880
   6    8.57413E+00    0.2536435567880597
   7    7.37632E+00    0.2182094330544761
   8    6.51868E+00    0.1928384616708754
   9    5.80630E+00    0.1717643917882990
  10    5.13350E+00    0.1518612356241393
  11    4.52520E+00    0.1338663801918339
  12    4.02557E+00    0.1190860324814771
  13    3.62052E+00    0.1071036944238916
  14    3.27606E+00    0.0969138171294069
  15    2.98376E+00    0.0882669347378328
  16    2.74165E+00    0.0811047118792280
  17    2.53298E+00    0.0749316965573195
  18    2.34801E+00    0.0694598889712897
  19    2.19461E+00    0.0649218725816801
  20    2.06947E+00    0.0612198745054945
  21    1.94755E+00    0.0576131648463457
  22    1.81357E+00    0.0536496855349252
  23    1.67871E+00    0.0496602362963306
  24    1.55663E+00    0.0460488764786964
  25    1.44524E+00    0.0427536093783792
  26    1.34081E+00    0.0396643354246004
  27    1.25113E+00    0.0370115620191819
  28    1.18431E+00    0.0350347124525668
  29    1.13449E+00    0.0335608883229433
  30    1.08741E+00    0.0321681870751782
  31    1.03465E+00    0.0306073959246786
  32    9.78587E-01    0.0289489898091169
  33    9.25598E-01    0.0273814461713015
  34    8.79574E-01    0.0260199305820942
  35    8.40117E-01    0.0248526927406643
  36    8.05112E-01    0.0238171788579591
  37    7.72536E-01    0.0228534903862296
  38    7.41753E-01    0.0219428651700517
  39    7.11554E-01    0.0210495058304336
  40    6.84676E-01    0.0202543888386071
  41    6.54229E-01    0.0193536745264807
  42    6.32013E-01    0.0186964818876549
  43    5.98568E-01    0.0177071038993875
  44    5.75028E-01    0.0170107165165174
  45    5.40835E-01    0.0159992030667661
  46    5.23717E-01    0.0154928069961796
  47    4.72312E-01    0.0139721353476225
  48    5.28613E-01    0.0156376520240939
  49    4.67101E-01    0.0138179842300791
  50    5.64216E-01    0.0166908632303360
  51    4.59971E-01    0.0136070620056867
  52    6.11777E-01    0.0180978603921662
  53    4.14832E-01    0.0122717241689459
  54    6.61926E-01    0.0195813745136073
  55    3.52669E-01    0.0104328032119183
  56    8.32880E-01    0.0246386164482313
