  # July 4, 2014 09:19:42
 # jmin,jmax    0   50
 # Eau     0.00200000
 # r0,ra,rb,rdel,tol,Bau,mu   3.5000  25.0000  25.0000   4.0000  1.0000E-03  3.0130E-07  6.8548E+03
 # parity bigJ  0  0        1  0        1  1        2  0        2  1        2  2        3  0        3  1        3  2        3  3
 # jmin,jmax,maxlamb are            0          50         100
 # j and jp are          31          37
 # lam  B-lambda(j,jp)  angle
#    6    279.0681      4.0822
#    7     19.3644      7.4600
#    8     73.5718     10.0151
#    9      9.3581     12.2743
#   10     30.3454     14.3791
#   11      4.9891     16.3907
#   12     16.1169     18.3413
#   13      2.7656     20.2501
#   14      9.8732     22.1292
#   15      1.7695     23.9873
#   16      6.3049     25.8304
#   17      1.3858     27.6631
#   18      4.3740     29.4888
#   19      1.1208     31.3105
#   20      3.2134     33.1304
#   21      0.7900     34.9505
#   22      2.1668     36.7725
#   23      0.4862     38.5979
#   24      1.6661     40.4280
#   25      0.2952     42.2641
#   26      1.3905     44.1073
#   27      0.1862     45.9588
#   28      1.0879     47.8196
#   29      0.1196     49.6909
#   30      0.8906     51.5736
#   31      0.0886     53.4688
#   32      0.8111     55.3777
#   33      0.0743     57.3013
#   34      0.6656     59.2407
#   35      0.0600     61.1972
#   36      0.4875     63.1720
#   37      0.0473     65.1664
#   38      0.3817     67.1818
#   39      0.0372     69.2197
#   40      0.3247     71.2817
#   41      0.0283     73.3695
#   42      0.2778     75.4849
#   43      0.0206     77.6299
#   44      0.2131     79.8067
#   45      0.0144     82.0178
#   46      0.1490     84.2657
#   47      0.0097     86.5534
#   48      0.1206     88.8841
#   49      0.0059     91.2615
#   50      0.1024     93.6897
#   51      0.0029     96.1733
#   52      0.0651     98.7177
#   53      0.0013    101.3291
#   54      0.0300    104.0146
#   55      0.0005    106.7825
#   56      0.0134    109.6429
#   57      0.0002    112.6078
#   58      0.0063    115.6919
#   59      0.0001    118.9136
#   60      0.0022    122.2961
#   61      0.0000    125.8698
#   62      0.0005    129.6759
#   63      0.0000    133.7719
#   64      0.0001    138.2434
#   65      0.0000    143.2275
#   66      0.0000    148.9707
#   67      0.0000    156.0127
#   68      0.0000    166.2192
   0    1.20453E+02    1.0000000000000000
   1    1.13062E+02    0.9386384925683061
   2    1.02493E+02    0.8508947512964579
   3    9.25404E+01    0.7682718941471082
   4    8.40234E+01    0.6975634902199930
   5    7.63780E+01    0.6340911327246003
   6    6.94121E+01    0.5762600831955506
   7    6.31987E+01    0.5246761512487592
   8    5.76644E+01    0.4787306751505040
   9    5.27205E+01    0.4376859193190332
  10    4.83404E+01    0.4013229987010465
  11    4.44380E+01    0.3689248585966706
  12    4.08884E+01    0.3394564039138980
  13    3.76372E+01    0.3124646712919765
  14    3.46690E+01    0.2878220808841602
  15    3.19531E+01    0.2652754237675748
  16    2.94972E+01    0.2448862948689475
  17    2.73402E+01    0.2269789383725384
  18    2.54511E+01    0.2112955198408189
  19    2.37394E+01    0.1970850665068372
  20    2.21698E+01    0.1840538067931392
  21    2.07662E+01    0.1724009756211054
  22    1.95253E+01    0.1620989979095292
  23    1.84009E+01    0.1527647856990646
  24    1.73547E+01    0.1440786686705254
  25    1.63731E+01    0.1359296774263997
  26    1.54585E+01    0.1283364179127562
  27    1.46235E+01    0.1214043327727072
  28    1.38834E+01    0.1152605636979987
  29    1.32342E+01    0.1098704630308683
  30    1.26516E+01    0.1050336335930940
  31    1.21035E+01    0.1004832694736850
  32    1.15771E+01    0.0961133176481740
  33    1.10644E+01    0.0918566931990629
  34    1.05779E+01    0.0878177198050705
  35    1.01066E+01    0.0839049447644228
  36    9.66863E+00    0.0802690623581430
  37    9.24097E+00    0.0767186163571467
  38    8.85012E+00    0.0734738200696375
  39    8.46221E+00    0.0702533737890104
  40    8.10933E+00    0.0673237962562905
  41    7.73524E+00    0.0642181025883598
  42    7.41485E+00    0.0615582004706796
  43    7.02118E+00    0.0582899355837602
  44    6.74572E+00    0.0560030273474340
  45    6.33101E+00    0.0525601430542727
  46    6.09587E+00    0.0506079659933199
  47    5.69265E+00    0.0472604725304482
  48    5.48373E+00    0.0455259852975126
  49    5.06665E+00    0.0420633963564154
  50    4.89453E+00    0.0406344792863107
  51    4.42870E+00    0.0367671122727458
  52    4.33091E+00    0.0359552651374401
  53    3.79980E+00    0.0315460141105433
  54    3.80254E+00    0.0315687377205163
  55    3.34030E+00    0.0277312484375019
  56    3.45208E+00    0.0286592419660924
  57    2.80449E+00    0.0232829064825281
  58    3.11450E+00    0.0258565779924962
  59    2.28213E+00    0.0189462805502932
  60    2.89003E+00    0.0239930755166262
  61    1.69185E+00    0.0140457481109889
  62    2.77444E+00    0.0230334691489278
