  # July 4, 2014 09:19:42
 # jmin,jmax    0   50
 # Eau     0.00200000
 # r0,ra,rb,rdel,tol,Bau,mu   3.5000  25.0000  25.0000   4.0000  1.0000E-03  3.0130E-07  6.8548E+03
 # parity bigJ  0  0        1  0        1  1        2  0        2  1        2  2        3  0        3  1        3  2        3  3
 # jmin,jmax,maxlamb are            0          50         100
 # j and jp are          27          32
 # lam  B-lambda(j,jp)  angle
#    5    185.1213      4.2841
#    6      2.6201      7.9078
#    7     67.9573     10.6866
#    8      1.8302     13.1689
#    9     38.2409     15.5001
#   10      1.4153     17.7421
#   11     24.6368     19.9271
#   12      1.0915     22.0744
#   13     16.5174     24.1963
#   14      0.8547     26.3011
#   15     11.7796     28.3950
#   16      0.6562     30.4826
#   17      8.4793     32.5676
#   18      0.4873     34.6530
#   19      6.2397     36.7412
#   20      0.3677     38.8343
#   21      4.6234     40.9345
#   22      0.2836     43.0434
#   23      3.4526     45.1628
#   24      0.2181     47.2942
#   25      2.7124     49.4392
#   26      0.1696     51.5995
#   27      2.1045     53.7765
#   28      0.1345     55.9719
#   29      1.6885     58.1874
#   30      0.1063     60.4247
#   31      1.3909     62.6857
#   32      0.0832     64.9723
#   33      1.1281     67.2865
#   34      0.0647     69.6306
#   35      0.9398     72.0071
#   36      0.0496     74.4186
#   37      0.8056     76.8679
#   38      0.0371     79.3582
#   39      0.7136     81.8932
#   40      0.0264     84.4767
#   41      0.6190     87.1131
#   42      0.0175     89.8076
#   43      0.4542     92.5659
#   44      0.0110     95.3945
#   45      0.2867     98.3012
#   46      0.0070    101.2950
#   47      0.1961    104.3865
#   48      0.0043    107.5888
#   49      0.1411    110.9176
#   50      0.0025    114.3924
#   51      0.0885    118.0384
#   52      0.0014    121.8881
#   53      0.0585    125.9854
#   54      0.0006    130.3922
#   55      0.0444    135.2001
#   56      0.0002    140.5561
#   57      0.0283    146.7244
#   58      0.0001    154.2839
#   59      0.0177    165.2369
   0    1.20549E+02    1.0000000000000000
   1    1.03968E+02    0.8624585755396372
   2    8.45404E+01    0.7012967490798873
   3    6.95751E+01    0.5771535768793251
   4    5.84708E+01    0.4850391778539370
   5    4.93121E+01    0.4090635102266237
   6    4.19542E+01    0.3480268487856220
   7    3.64547E+01    0.3024065654660928
   8    3.23068E+01    0.2679976703366193
   9    2.88255E+01    0.2391189144795286
  10    2.59524E+01    0.2152855884714016
  11    2.36221E+01    0.1959549446716064
  12    2.17505E+01    0.1804295866311647
  13    2.00240E+01    0.1661068368687487
  14    1.85215E+01    0.1536431949334788
  15    1.72463E+01    0.1430646684082574
  16    1.62066E+01    0.1344405518056105
  17    1.51961E+01    0.1260573799439195
  18    1.43595E+01    0.1191178661041826
  19    1.35841E+01    0.1126854680538877
  20    1.29545E+01    0.1074628993113986
  21    1.23016E+01    0.1020463689538191
  22    1.17896E+01    0.0977997223719751
  23    1.12378E+01    0.0932218995054286
  24    1.08122E+01    0.0896915585330701
  25    1.03332E+01    0.0857178953143482
  26    1.00017E+01    0.0829679553515451
  27    9.60039E+00    0.0796391350926387
  28    9.33341E+00    0.0774244502109415
  29    8.95351E+00    0.0742730086578943
  30    8.75022E+00    0.0725866502891261
  31    8.40286E+00    0.0697051312963831
  32    8.29768E+00    0.0688325791295011
  33    7.97198E+00    0.0661307868527486
  34    7.92714E+00    0.0657588698059964
  35    7.59128E+00    0.0629727269403224
  36    7.57604E+00    0.0628463337921958
  37    7.20823E+00    0.0597952033429659
  38    7.27652E+00    0.0603616435433174
  39    6.80926E+00    0.0564856050758349
  40    7.04149E+00    0.0584119758036316
  41    6.42614E+00    0.0533073949655237
  42    6.81361E+00    0.0565216607924190
  43    6.09858E+00    0.0505902089401274
  44    6.65219E+00    0.0551825915704025
  45    5.87871E+00    0.0487662763264192
  46    6.52604E+00    0.0541361009168820
  47    5.60989E+00    0.0465362725785597
  48    6.46002E+00    0.0535884417640248
  49    5.32440E+00    0.0441680425675251
  50    6.49534E+00    0.0538814412225898
  51    4.91519E+00    0.0407734826832049
  52    6.74942E+00    0.0559892053927980
  53    4.24412E+00    0.0352066587239850
  54    8.53383E+00    0.0707916033578087
