  # July 4, 2014 09:19:42
 # jmin,jmax    0   50
 # Eau     0.00200000
 # r0,ra,rb,rdel,tol,Bau,mu   3.5000  25.0000  25.0000   4.0000  1.0000E-03  3.0130E-07  6.8548E+03
 # parity bigJ  0  0        1  0        1  1        2  0        2  1        2  2        3  0        3  1        3  2        3  3
 # jmin,jmax,maxlamb are            0          50         100
 # j and jp are          22          48
 # lam  B-lambda(j,jp)  angle
#   26      6.6377      8.8276
#   27      0.1277     15.5483
#   28      2.7675     20.3248
#   29      0.0844     24.3345
#   30      1.7352     27.9134
#   31      0.0692     31.2138
#   32      1.2493     34.3195
#   33      0.0585     37.2827
#   34      0.9314     40.1383
#   35      0.0475     42.9114
#   36      0.6966     45.6205
#   37      0.0366     48.2799
#   38      0.5400     50.9012
#   39      0.0266     53.4938
#   40      0.4370     56.0656
#   41      0.0178     58.6235
#   42      0.3458     61.1734
#   43      0.0107     63.7209
#   44      0.2769     66.2710
#   45      0.0065     68.8284
#   46      0.2491     71.3978
#   47      0.0045     73.9836
#   48      0.2101     76.5902
#   49      0.0028     79.2224
#   50      0.1319     81.8847
#   51      0.0013     84.5823
#   52      0.0600     87.3205
#   53      0.0006     90.1050
#   54      0.0239     92.9424
#   55      0.0002     95.8399
#   56      0.0102     98.8055
#   57      0.0001    101.8489
#   58      0.0038    104.9809
#   59      0.0000    108.2148
#   60      0.0010    111.5664
#   61      0.0000    115.0554
#   62      0.0002    118.7068
#   63      0.0000    122.5528
#   64      0.0000    126.6370
#   65      0.0000    131.0202
#   66      0.0000    135.7929
#   67      0.0000    141.0997
#   68      0.0000    147.2007
#   69      0.0000    154.6651
#   70      0.0000    165.4635
   0    1.57819E+01    1.0000000000000000
   1    1.28654E+01    0.8152009807470437
   2    9.03885E+00    0.5727359879805021
   3    6.23003E+00    0.3947583740223387
   4    4.77591E+00    0.3026197997868969
   5    3.95459E+00    0.2505780252674368
   6    3.24662E+00    0.2057181791889656
   7    2.67724E+00    0.1696399730503973
   8    2.34909E+00    0.1488475115000419
   9    2.15280E+00    0.1364098847786558
  10    1.93795E+00    0.1227958461703826
  11    1.70486E+00    0.1080266110423125
  12    1.53394E+00    0.0971960137986900
  13    1.43257E+00    0.0907730537194577
  14    1.33783E+00    0.0847700641661803
  15    1.22318E+00    0.0775050194875944
  16    1.12326E+00    0.0711740620019599
  17    1.06276E+00    0.0673404943269542
  18    1.02021E+00    0.0646443853865940
  19    9.67684E-01    0.0613161157209855
  20    9.06351E-01    0.0574298532714605
  21    8.51925E-01    0.0539812284557277
  22    8.09226E-01    0.0512756102066675
  23    7.71633E-01    0.0488936197876312
  24    7.34105E-01    0.0465156590603370
  25    6.97208E-01    0.0441777665768941
  26    6.63178E-01    0.0420214551662165
  27    6.32279E-01    0.0400636031650005
  28    6.03834E-01    0.0382612313615689
  29    5.77085E-01    0.0365663105482730
  30    5.52125E-01    0.0349847474395195
  31    5.28895E-01    0.0335128125320541
  32    5.07798E-01    0.0321760162209778
  33    4.87860E-01    0.0309126381942304
  34    4.70963E-01    0.0298420097268905
  35    4.51541E-01    0.0286113559677458
  36    4.40363E-01    0.0279030531143951
  37    4.17103E-01    0.0264292522631756
  38    4.12342E-01    0.0261275210745577
  39    3.88111E-01    0.0245921978052931
  40    3.82947E-01    0.0242649781859366
  41    3.05251E-01    0.0193418591116145
  42    4.39174E-01    0.0278277328623453
  43    2.02317E-01    0.0128195567100464
  44    5.58074E-01    0.0353616987047623
