  # July 4, 2014 09:19:42
 # jmin,jmax    0   50
 # Eau     0.00200000
 # r0,ra,rb,rdel,tol,Bau,mu   3.5000  25.0000  25.0000   4.0000  1.0000E-03  3.0130E-07  6.8548E+03
 # parity bigJ  0  0        1  0        1  1        2  0        2  1        2  2        3  0        3  1        3  2        3  3
 # jmin,jmax,maxlamb are            0          50         100
 # j and jp are          28          50
 # lam  B-lambda(j,jp)  angle
#   22     13.2105      7.0755
#   23      0.6417     12.4722
#   24      5.6524     16.3169
#   25      0.3614     19.5502
#   26      3.7960     22.4400
#   27      0.2306     25.1071
#   28      2.8525     27.6180
#   29      0.1616     30.0139
#   30      2.1636     32.3221
#   31      0.1295     34.5620
#   32      1.5854     36.7480
#   33      0.1038     38.8911
#   34      1.1153     40.9997
#   35      0.0833     43.0809
#   36      0.8287     45.1404
#   37      0.0669     47.1830
#   38      0.6907     49.2129
#   39      0.0532     51.2335
#   40      0.5792     53.2482
#   41      0.0408     55.2598
#   42      0.4414     57.2708
#   43      0.0295     59.2838
#   44      0.3250     61.3010
#   45      0.0195     63.3246
#   46      0.2350     65.3567
#   47      0.0110     67.3993
#   48      0.1406     69.4547
#   49      0.0051     71.5247
#   50      0.0615     73.6115
#   51      0.0021     75.7173
#   52      0.0223     77.8443
#   53      0.0009     79.9948
#   54      0.0097     82.1714
#   55      0.0003     84.3767
#   56      0.0044     86.6135
#   57      0.0001     88.8850
#   58      0.0014     91.1946
#   59      0.0000     93.5460
#   60      0.0003     95.9435
#   61      0.0000     98.3917
#   62      0.0000    100.8959
#   63      0.0000    103.4624
#   64      0.0000    106.0982
#   65      0.0000    108.8115
#   66      0.0000    111.6122
#   67      0.0000    114.5120
#   68      0.0000    117.5253
#   69      0.0000    120.6699
#   70      0.0000    123.9685
#   71      0.0000    127.4507
#   72      0.0000    131.1563
#   73      0.0000    135.1411
#   74      0.0000    139.4882
#   75      0.0000    144.3304
#   76      0.0000    149.9066
#   77      0.0000    156.7397
#   78      0.0000    166.6372
   0    2.54462E+01    1.0000000000000000
   1    2.22424E+01    0.8740968079082576
   2    1.73161E+01    0.6804982022026776
   3    1.25713E+01    0.4940343021256483
   4    9.16445E+00    0.3601504939506243
   5    7.13940E+00    0.2805688000092276
   6    5.92211E+00    0.2327310472294170
   7    5.00930E+00    0.1968588209117592
   8    4.25266E+00    0.1671238031140420
   9    3.70509E+00    0.1456049467588122
  10    3.37639E+00    0.1326875314818743
  11    3.16677E+00    0.1244497100591303
  12    2.96101E+00    0.1163638210349366
  13    2.71926E+00    0.1068634125223082
  14    2.47080E+00    0.0970990575308218
  15    2.25167E+00    0.0884874430426889
  16    2.06939E+00    0.0813241686631314
  17    1.91709E+00    0.0753392003727544
  18    1.79505E+00    0.0705430936850354
  19    1.70540E+00    0.0670199937556553
  20    1.63607E+00    0.0642953665406448
  21    1.56498E+00    0.0615015133475999
  22    1.48141E+00    0.0582173599679446
  23    1.39513E+00    0.0548267615785134
  24    1.32219E+00    0.0519601342250739
  25    1.26718E+00    0.0497983745641952
  26    1.22211E+00    0.0480272476239603
  27    1.17798E+00    0.0462930077743830
  28    1.13282E+00    0.0445181371299634
  29    1.08963E+00    0.0428208575356495
  30    1.05075E+00    0.0412931036876064
  31    1.01578E+00    0.0399186016235159
  32    9.83215E-01    0.0386390002727135
  33    9.52387E-01    0.0374275223971123
  34    9.23595E-01    0.0362960294506664
  35    8.97319E-01    0.0352634085861257
  36    8.73652E-01    0.0343333495592830
  37    8.52302E-01    0.0334943129298096
  38    8.32832E-01    0.0327291686935213
  39    8.14842E-01    0.0320221777718272
  40    7.98020E-01    0.0313611005887595
  41    7.82126E-01    0.0307365016834132
  42    7.67038E-01    0.0301435614071991
  43    7.52628E-01    0.0295772777093400
  44    7.38976E-01    0.0290407708425447
  45    7.25735E-01    0.0285204023466491
  46    7.12450E-01    0.0279983243122912
  47    6.98997E-01    0.0274696183260805
  48    6.82740E-01    0.0268307631702365
  49    6.63373E-01    0.0260696480582340
  50    6.49681E-01    0.0255315917838656
  51    6.11970E-01    0.0240495765303406
  52    5.57715E-01    0.0219174625619978
  53    5.03584E-01    0.0197901695911541
  54    5.17121E-01    0.0203221731305300
  55    3.81177E-01    0.0149797516358244
  56    7.01549E-01    0.0275699101760433
