  # July 4, 2014 09:19:42
 # jmin,jmax    0   50
 # Eau     0.00200000
 # r0,ra,rb,rdel,tol,Bau,mu   3.5000  25.0000  25.0000   4.0000  1.0000E-03  3.0130E-07  6.8548E+03
 # parity bigJ  0  0        1  0        1  1        2  0        2  1        2  2        3  0        3  1        3  2        3  3
 # jmin,jmax,maxlamb are            0          50         100
 # j and jp are          24          50
 # lam  B-lambda(j,jp)  angle
#   26      8.0869      8.2922
#   27      0.2460     14.5982
#   28      3.6299     19.0769
#   29      0.1654     22.8337
#   30      2.4143     26.1840
#   31      0.1076     29.2707
#   32      1.6814     32.1724
#   33      0.0777     34.9382
#   34      1.1365     37.6006
#   35      0.0613     40.1830
#   36      0.8029     42.7027
#   37      0.0497     45.1729
#   38      0.6398     47.6041
#   39      0.0399     50.0051
#   40      0.5313     52.3829
#   41      0.0309     54.7437
#   42      0.4070     57.0928
#   43      0.0226     59.4349
#   44      0.2950     61.7744
#   45      0.0153     64.1151
#   46      0.2141     66.4609
#   47      0.0089     68.8151
#   48      0.1365     71.1814
#   49      0.0043     73.5632
#   50      0.0651     75.9638
#   51      0.0018     78.3867
#   52      0.0244     80.8358
#   53      0.0008     83.3146
#   54      0.0101     85.8274
#   55      0.0003     88.3786
#   56      0.0048     90.9728
#   57      0.0001     93.6154
#   58      0.0017     96.3124
#   59      0.0000     99.0704
#   60      0.0004    101.8971
#   61      0.0000    104.8015
#   62      0.0001    107.7940
#   63      0.0000    110.8871
#   64      0.0000    114.0961
#   65      0.0000    117.4399
#   66      0.0000    120.9424
#   67      0.0000    124.6347
#   68      0.0000    128.5587
#   69      0.0000    132.7733
#   70      0.0000    137.3657
#   71      0.0000    142.4754
#   72      0.0000    148.3534
#   73      0.0000    155.5492
#   74      0.0000    165.9638
   0    1.82018E+01    1.0000000000000000
   1    1.56124E+01    0.8577349547770741
   2    1.17711E+01    0.6466995742412774
   3    8.29041E+00    0.4554712395223232
   4    5.98715E+00    0.3289312186876900
   5    4.70680E+00    0.2585893023564904
   6    3.90955E+00    0.2147888798718216
   7    3.25427E+00    0.1787879116185432
   8    2.71083E+00    0.1489315245408254
   9    2.34561E+00    0.1288666377804344
  10    2.14337E+00    0.1177554789088669
  11    2.01548E+00    0.1107294869798565
  12    1.89279E+00    0.1039891379213082
  13    1.76413E+00    0.0969203756966736
  14    1.64148E+00    0.0901822310131324
  15    1.52425E+00    0.0837417551002457
  16    1.40684E+00    0.0772912553481708
  17    1.29872E+00    0.0713507721906471
  18    1.21661E+00    0.0668398044565328
  19    1.16157E+00    0.0638162992984876
  20    1.11691E+00    0.0613626084403105
  21    1.06793E+00    0.0586717974936897
  22    1.01477E+00    0.0557511983727048
  23    9.65466E-01    0.0530421987439233
  24    9.24007E-01    0.0507644980020183
  25    8.88119E-01    0.0487928398251661
  26    8.54430E-01    0.0469419555354674
  27    8.22035E-01    0.0451621809328898
  28    7.91748E-01    0.0434982548135189
  29    7.64162E-01    0.0419826790591513
  30    7.39046E-01    0.0406028481512462
  31    7.15791E-01    0.0393251879686094
  32    6.93883E-01    0.0381215743409821
  33    6.72897E-01    0.0369686373809851
  34    6.52470E-01    0.0358463690807523
  35    6.32035E-01    0.0347237092593870
  36    6.11077E-01    0.0335722912656937
  37    5.88896E-01    0.0323536648014071
  38    5.64931E-01    0.0310370138887277
  39    5.38951E-01    0.0296097065181322
  40    5.10308E-01    0.0280360434927590
  41    4.78546E-01    0.0262910854553606
  42    4.47146E-01    0.0245659885312891
  43    4.04570E-01    0.0222268871417194
  44    3.78546E-01    0.0207971474101923
  45    3.65384E-01    0.0200740191061671
  46    3.74765E-01    0.0205894163414354
  47    3.11926E-01    0.0171370715207498
  48    5.00918E-01    0.0275202081736810
