  # July 4, 2014 09:19:42
 # jmin,jmax    0   50
 # Eau     0.00200000
 # r0,ra,rb,rdel,tol,Bau,mu   3.5000  25.0000  25.0000   4.0000  1.0000E-03  3.0130E-07  6.8548E+03
 # parity bigJ  0  0        1  0        1  1        2  0        2  1        2  2        3  0        3  1        3  2        3  3
 # jmin,jmax,maxlamb are            0          50         100
 # j and jp are          32          42
 # lam  B-lambda(j,jp)  angle
#   10     78.6782      4.8726
#   11     10.6932      8.7277
#   12     25.6237     11.5555
#   13      4.7048     13.9948
#   14     13.5128     16.2233
#   15      2.7815     18.3195
#   16      8.1040     20.3258
#   17      1.7843     22.2679
#   18      5.1791     24.1625
#   19      1.2624     26.0214
#   20      3.7141     27.8532
#   21      0.9780     29.6642
#   22      2.7784     31.4593
#   23      0.7774     33.2427
#   24      2.0095     35.0175
#   25      0.6243     36.7863
#   26      1.5601     38.5516
#   27      0.4993     40.3153
#   28      1.1915     42.0791
#   29      0.3900     43.8446
#   30      1.0159     45.6133
#   31      0.2859     47.3864
#   32      1.0063     49.1653
#   33      0.1910     50.9512
#   34      0.8309     52.7451
#   35      0.1189     54.5482
#   36      0.5776     56.3616
#   37      0.0729     58.1864
#   38      0.4302     60.0237
#   39      0.0485     61.8747
#   40      0.3642     63.7406
#   41      0.0360     65.6225
#   42      0.2887     67.5217
#   43      0.0261     69.4394
#   44      0.1946     71.3772
#   45      0.0174     73.3365
#   46      0.1405     75.3188
#   47      0.0108     77.3258
#   48      0.1233     79.3593
#   49      0.0059     81.4213
#   50      0.0906     83.5139
#   51      0.0027     85.6395
#   52      0.0460     87.8005
#   53      0.0011     90.0000
#   54      0.0191     92.2410
#   55      0.0005     94.5270
#   56      0.0087     96.8621
#   57      0.0002     99.2507
#   58      0.0035    101.6980
#   59      0.0000    104.2100
#   60      0.0009    106.7935
#   61      0.0000    109.4567
#   62      0.0002    112.2092
#   63      0.0000    115.0626
#   64      0.0000    118.0312
#   65      0.0000    121.1326
#   66      0.0000    124.3892
#   67      0.0000    127.8305
#   68      0.0000    131.4960
#   69      0.0000    135.4413
#   70      0.0000    139.7489
#   71      0.0000    144.5510
#   72      0.0000    150.0853
#   73      0.0000    156.8720
#   74      0.0000    166.7088
   0    6.50259E+01    1.0000000000000000
   1    5.94766E+01    0.9146605310863903
   2    5.11164E+01    0.7860934015234157
   3    4.30568E+01    0.6621493632750999
   4    3.67253E+01    0.5647794245411973
   5    3.19109E+01    0.4907423567560496
   6    2.79903E+01    0.4304490405718936
   7    2.46390E+01    0.3789107699886053
   8    2.17412E+01    0.3343473156908528
   9    1.92038E+01    0.2953252597481149
  10    1.69857E+01    0.2612152460887074
  11    1.51135E+01    0.2324235325406741
  12    1.35798E+01    0.2088371302307892
  13    1.22939E+01    0.1890609869391726
  14    1.11560E+01    0.1715630855239673
  15    1.01281E+01    0.1557547544376703
  16    9.21134E+00    0.1416565284055876
  17    8.40440E+00    0.1292470462016223
  18    7.71079E+00    0.1185804102260084
  19    7.14668E+00    0.1099052508002883
  20    6.69958E+00    0.1030295361554879
  21    6.30359E+00    0.0969397808553859
  22    5.89431E+00    0.0906456985218648
  23    5.47459E+00    0.0841909226288352
  24    5.09579E+00    0.0783656029308316
  25    4.78654E+00    0.0736097278823442
  26    4.52692E+00    0.0696172055544320
  27    4.28362E+00    0.0658757163030343
  28    4.04353E+00    0.0621833850574021
  29    3.81266E+00    0.0586329875027762
  30    3.60182E+00    0.0553905583744975
  31    3.41920E+00    0.0525821889773451
  32    3.26732E+00    0.0502464027330128
  33    3.14004E+00    0.0482891591303302
  34    3.02482E+00    0.0465172239305241
  35    2.91017E+00    0.0447540858068309
  36    2.79228E+00    0.0429410600558941
  37    2.67451E+00    0.0411300098518386
  38    2.56292E+00    0.0394138751540294
  39    2.46114E+00    0.0378486159550450
  40    2.36914E+00    0.0364338549358762
  41    2.28431E+00    0.0351291829913823
  42    2.20351E+00    0.0338866021338052
  43    2.12492E+00    0.0326780162797079
  44    2.04937E+00    0.0315162010113874
  45    1.97272E+00    0.0303374832154448
  46    1.90532E+00    0.0293009561300071
  47    1.83033E+00    0.0281477852079177
  48    1.76770E+00    0.0271845841095255
  49    1.69911E+00    0.0261297095597642
  50    1.64453E+00    0.0252904100865989
  51    1.56616E+00    0.0240852303756730
  52    1.55868E+00    0.0239702186710968
  53    1.42600E+00    0.0219296819995233
  54    1.44177E+00    0.0221722826144625
  55    1.26149E+00    0.0193997961841459
  56    1.27285E+00    0.0195745249269486
  57    1.10506E+00    0.0169941862931569
  58    1.24263E+00    0.0191097428691664
  59    9.39738E-01    0.0144517549981742
  60    1.11100E+00    0.0170855663381832
  61    7.81658E-01    0.0120207294310136
  62    1.23150E+00    0.0189386747721796
  63    4.80189E-01    0.0073845802680182
  64    1.25726E+00    0.0193348132718643
