  # July 4, 2014 09:19:42
 # jmin,jmax    0   50
 # Eau     0.00200000
 # r0,ra,rb,rdel,tol,Bau,mu   3.5000  25.0000  25.0000   4.0000  1.0000E-03  3.0130E-07  6.8548E+03
 # parity bigJ  0  0        1  0        1  1        2  0        2  1        2  2        3  0        3  1        3  2        3  3
 # jmin,jmax,maxlamb are            0          50         100
 # j and jp are          27          38
 # lam  B-lambda(j,jp)  angle
#   11     70.1733      5.8358
#   12      2.8519     10.4289
#   13     29.5085     13.7845
#   14      1.6233     16.6701
#   15     17.4565     19.3000
#   16      1.1191     21.7692
#   17     11.1738     24.1294
#   18      0.8202     26.4119
#   19      7.7492     28.6376
#   20      0.6671     30.8208
#   21      5.6775     32.9722
#   22      0.5687     35.1000
#   23      4.2070     37.2103
#   24      0.4491     39.3084
#   25      3.0814     41.3985
#   26      0.3114     43.4841
#   27      2.2748     45.5684
#   28      0.2104     47.6542
#   29      1.8248     49.7438
#   30      0.1533     51.8397
#   31      1.4741     53.9439
#   32      0.1138     56.0586
#   33      1.1792     58.1857
#   34      0.0838     60.3272
#   35      0.9646     62.4850
#   36      0.0630     64.6612
#   37      0.8020     66.8578
#   38      0.0463     69.0769
#   39      0.6981     71.3208
#   40      0.0314     73.5918
#   41      0.5704     75.8924
#   42      0.0200     78.2252
#   43      0.3832     80.5933
#   44      0.0128     82.9998
#   45      0.2403     85.4483
#   46      0.0083     87.9426
#   47      0.1663     90.4872
#   48      0.0051     93.0869
#   49      0.1054     95.7474
#   50      0.0030     98.4751
#   51      0.0599    101.2776
#   52      0.0017    104.1635
#   53      0.0404    107.1432
#   54      0.0008    110.2292
#   55      0.0259    113.4368
#   56      0.0003    116.7850
#   57      0.0114    120.2978
#   58      0.0001    124.0067
#   59      0.0037    127.9541
#   60      0.0000    132.1995
#   61      0.0014    136.8314
#   62      0.0000    141.9914
#   63      0.0006    147.9340
#   64      0.0000    155.2168
#   65      0.0003    165.7682
   0    8.15017E+01    1.0000000000000000
   1    7.07920E+01    0.8685956142267610
   2    5.63398E+01    0.6912716459747874
   3    4.42866E+01    0.5433825510910950
   4    3.57975E+01    0.4392238052908465
   5    2.94953E+01    0.3618980521830120
   6    2.44237E+01    0.2996717846323225
   7    2.04474E+01    0.2508826444400572
   8    1.75605E+01    0.2154624665463344
   9    1.54691E+01    0.1898010633222649
  10    1.37664E+01    0.1689098760171536
  11    1.22762E+01    0.1506250508112126
  12    1.10316E+01    0.1353547449964951
  13    1.00390E+01    0.1231758659576881
  14    9.23359E+00    0.1132932253591961
  15    8.53954E+00    0.1047775449991994
  16    7.94077E+00    0.0974307917958249
  17    7.47467E+00    0.0917118845782644
  18    7.13885E+00    0.0875914618680884
  19    6.84087E+00    0.0839354095976404
  20    6.52267E+00    0.0800311422170698
  21    6.20752E+00    0.0761643009528975
  22    5.93060E+00    0.0727666167016574
  23    5.67524E+00    0.0696334536026677
  24    5.43538E+00    0.0666904595206153
  25    5.21905E+00    0.0640361392081954
  26    5.03816E+00    0.0618166496118181
  27    4.86964E+00    0.0597490102536231
  28    4.70747E+00    0.0577591965058150
  29    4.54054E+00    0.0557110781221701
  30    4.39604E+00    0.0539380028288276
  31    4.25350E+00    0.0521891311960989
  32    4.14665E+00    0.0508781017115079
  33    4.01584E+00    0.0492731057708344
  34    3.92828E+00    0.0481988217886862
  35    3.79071E+00    0.0465108337115556
  36    3.71359E+00    0.0455645949877682
  37    3.57680E+00    0.0438862037193064
  38    3.51049E+00    0.0430726176579867
  39    3.37146E+00    0.0413667730651689
  40    3.33052E+00    0.0408644849115309
  41    3.15252E+00    0.0386804763789296
  42    3.15385E+00    0.0386968182646383
  43    2.92803E+00    0.0359259848340422
  44    2.94908E+00    0.0361843362995029
  45    2.69321E+00    0.0330448040311828
  46    2.81990E+00    0.0345992840125398
  47    2.39445E+00    0.0293790998115359
  48    2.72166E+00    0.0333939830147864
  49    2.07685E+00    0.0254822982780164
  50    2.63365E+00    0.0323140670515815
  51    1.83598E+00    0.0225269397279054
  52    2.65193E+00    0.0325384027854814
  53    1.43381E+00    0.0175923687512146
  54    3.02048E+00    0.0370603558385391
