  # July 4, 2014 09:19:42
 # jmin,jmax    0   50
 # Eau     0.00200000
 # r0,ra,rb,rdel,tol,Bau,mu   3.5000  25.0000  25.0000   4.0000  1.0000E-03  3.0130E-07  6.8548E+03
 # parity bigJ  0  0        1  0        1  1        2  0        2  1        2  2        3  0        3  1        3  2        3  3
 # jmin,jmax,maxlamb are            0          50         100
 # j and jp are          21          25
 # lam  B-lambda(j,jp)  angle
#    4    564.7210      4.8921
#    5     12.4884      9.1653
#    6    113.8605     12.5032
#    7      3.7559     15.5258
#    8     41.2081     18.3936
#    9      1.3690     21.1740
#   10     18.8971     23.9020
#   11      0.5922     26.5984
#   12      9.9941     29.2767
#   13      0.3098     31.9461
#   14      5.9167     34.6139
#   15      0.1902     37.2856
#   16      3.9079     39.9658
#   17      0.1295     42.6584
#   18      2.7785     45.3673
#   19      0.0964     48.0958
#   20      2.0666     50.8472
#   21      0.0756     53.6249
#   22      1.6838     56.4322
#   23      0.0614     59.2727
#   24      1.3447     62.1501
#   25      0.0510     65.0684
#   26      1.1292     68.0319
#   27      0.0425     71.0453
#   28      0.9887     74.1140
#   29      0.0350     77.2437
#   30      0.8414     80.4412
#   31      0.0283     83.7141
#   32      0.7098     87.0712
#   33      0.0224     90.5228
#   34      0.6556     94.0811
#   35      0.0172     97.7608
#   36      0.5648    101.5797
#   37      0.0128    105.5602
#   38      0.4253    109.7303
#   39      0.0094    114.1271
#   40      0.3578    118.8001
#   41      0.0066    123.8191
#   42      0.3555    129.2878
#   43      0.0042    135.3721
#   44      0.3887    142.3706
#   45      0.0022    150.9379
#   46      0.5960    163.3425
   0    1.98553E+02    1.0000000000000000
   1    1.78391E+02    0.8984562160896350
   2    1.65644E+02    0.8342560916148479
   3    1.51632E+02    0.7636848310659620
   4    1.40900E+02    0.7096368259390545
   5    1.28442E+02    0.6468901437706560
   6    1.18290E+02    0.5957598665826767
   7    1.07750E+02    0.5426763306092770
   8    9.91741E+01    0.4994852827076235
   9    9.02877E+01    0.4547293537433824
  10    8.33320E+01    0.4196976012355411
  11    7.61098E+01    0.3833233422517544
  12    7.04112E+01    0.3546222809710093
  13    6.45215E+01    0.3249591408316368
  14    6.00068E+01    0.3022209908388190
  15    5.51203E+01    0.2776105831272441
  16    5.14410E+01    0.2590798833587509
  17    4.74303E+01    0.2388805213555550
  18    4.44784E+01    0.2240131462236885
  19    4.10752E+01    0.2068734117613748
  20    3.86442E+01    0.1946293434731904
  21    3.57607E+01    0.1801070805563529
  22    3.37856E+01    0.1701595205017464
  23    3.13184E+01    0.1577335940648682
  24    2.96946E+01    0.1495553868901393
  25    2.74971E+01    0.1384877776300608
  26    2.61719E+01    0.1318135517778764
  27    2.41230E+01    0.1214942266195333
  28    2.31252E+01    0.1164689820779621
  29    2.11649E+01    0.1065959057156073
  30    2.03957E+01    0.1027221301771672
  31    1.84984E+01    0.0931661896288660
  32    1.78837E+01    0.0900702899102184
  33    1.60362E+01    0.0807654605958457
  34    1.56243E+01    0.0786907904805568
  35    1.36859E+01    0.0689285137446641
  36    1.34439E+01    0.0677096314638844
  37    1.14069E+01    0.0574502528147937
  38    1.14123E+01    0.0574773802726434
  39    9.09414E+00    0.0458021877178442
  40    9.47790E+00    0.0477349809629454
  41    6.46681E+00    0.0325697417472976
  42    8.17300E+00    0.0411629232139831
