  # July 4, 2014 09:19:42
 # jmin,jmax    0   50
 # Eau     0.00200000
 # r0,ra,rb,rdel,tol,Bau,mu   3.5000  25.0000  25.0000   4.0000  1.0000E-03  3.0130E-07  6.8548E+03
 # parity bigJ  0  0        1  0        1  1        2  0        2  1        2  2        3  0        3  1        3  2        3  3
 # jmin,jmax,maxlamb are            0          50         100
 # j and jp are          21          35
 # lam  B-lambda(j,jp)  angle
#   14     27.1647      7.7494
#   15      1.5478     13.7824
#   16      9.1100     18.1514
#   17      0.7823     21.8817
#   18      4.9931     25.2624
#   19      0.3882     28.4227
#   20      3.2750     31.4334
#   21      0.1850     34.3382
#   22      2.2685     37.1660
#   23      0.1041     39.9377
#   24      1.6867     42.6686
#   25      0.0766     45.3705
#   26      1.3787     48.0530
#   27      0.0629     50.7242
#   28      1.1403     53.3907
#   29      0.0530     56.0585
#   30      0.9126     58.7331
#   31      0.0454     61.4194
#   32      0.7666     64.1222
#   33      0.0378     66.8462
#   34      0.6685     69.5959
#   35      0.0298     72.3762
#   36      0.5081     75.1920
#   37      0.0234     78.0484
#   38      0.3733     80.9509
#   39      0.0184     83.9057
#   40      0.3109     86.9196
#   41      0.0140     90.0000
#   42      0.2751     93.1556
#   43      0.0103     96.3964
#   44      0.2357     99.7341
#   45      0.0072    103.1827
#   46      0.1817    106.7591
#   47      0.0047    110.4842
#   48      0.1379    114.3847
#   49      0.0029    118.4951
#   50      0.1264    122.8620
#   51      0.0015    127.5506
#   52      0.1159    132.6577
#   53      0.0006    138.3383
#   54      0.0853    144.8710
#   55      0.0002    152.8664
#   56      0.0720    164.4386
   0    4.01437E+01    1.0000000000000000
   1    3.11110E+01    0.7749904463591473
   2    2.37545E+01    0.5917365948372536
   3    1.87325E+01    0.4666363422881145
   4    1.54713E+01    0.3853976726342858
   5    1.29445E+01    0.3224528812841685
   6    1.09978E+01    0.2739616545078599
   7    9.24152E+00    0.2302106530348631
   8    7.94890E+00    0.1980108732603436
   9    6.79620E+00    0.1692967031030033
  10    6.11257E+00    0.1522671205882339
  11    5.40291E+00    0.1345891469336312
  12    4.88635E+00    0.1217212321584412
  13    4.35338E+00    0.1084448218416438
  14    4.07587E+00    0.1015318023313240
  15    3.65830E+00    0.0911299229439389
  16    3.42117E+00    0.0852230225763160
  17    3.03309E+00    0.0755558296728419
  18    2.90143E+00    0.0722760034360655
  19    2.61466E+00    0.0651324667541503
  20    2.56783E+00    0.0639659459445709
  21    2.28429E+00    0.0569027201038172
  22    2.25078E+00    0.0560680125058146
  23    1.98756E+00    0.0495111266719911
  24    1.99187E+00    0.0496185299305973
  25    1.75060E+00    0.0436081843930563
  26    1.76615E+00    0.0439955429282947
  27    1.53525E+00    0.0382438574716733
  28    1.57916E+00    0.0393376374948239
  29    1.34809E+00    0.0335816425576939
  30    1.43497E+00    0.0357457676581418
  31    1.17708E+00    0.0293216686525910
  32    1.31991E+00    0.0328796073879515
  33    1.03705E+00    0.0258334348024157
  34    1.24247E+00    0.0309505727341960
  35    9.16762E-01    0.0228369946242744
  36    1.16737E+00    0.0290798036130742
  37    8.41235E-01    0.0209555634069646
  38    1.12913E+00    0.0281270614448050
  39    6.48223E-01    0.0161475473509602
  40    1.18435E+00    0.0295027287291636
  41    4.75440E-01    0.0118434354622863
  42    1.54060E+00    0.0383770424081379
