  # July 4, 2014 09:19:42
 # jmin,jmax    0   50
 # Eau     0.00200000
 # r0,ra,rb,rdel,tol,Bau,mu   3.5000  25.0000  25.0000   4.0000  1.0000E-03  3.0130E-07  6.8548E+03
 # parity bigJ  0  0        1  0        1  1        2  0        2  1        2  2        3  0        3  1        3  2        3  3
 # jmin,jmax,maxlamb are            0          50         100
 # j and jp are          16          48
 # lam  B-lambda(j,jp)  angle
#   32      3.3022     11.4218
#   33      0.0306     20.1261
#   34      1.3959     26.3074
#   35      0.0188     31.4967
#   36      0.8722     36.1319
#   37      0.0162     40.4120
#   38      0.6217     44.4475
#   39      0.0129     48.3075
#   40      0.4801     52.0391
#   41      0.0096     55.6766
#   42      0.3708     59.2461
#   43      0.0065     62.7682
#   44      0.2860     66.2604
#   45      0.0043     69.7377
#   46      0.2454     73.2134
#   47      0.0030     76.7002
#   48      0.2097     80.2102
#   49      0.0019     83.7555
#   50      0.1409     87.3486
#   51      0.0010     91.0029
#   52      0.0692     94.7332
#   53      0.0004     98.5562
#   54      0.0286    102.4914
#   55      0.0002    106.5623
#   56      0.0126    110.7978
#   57      0.0001    115.2352
#   58      0.0054    119.9239
#   59      0.0000    124.9327
#   60      0.0017    130.3631
#   61      0.0000    136.3770
#   62      0.0004    143.2650
#   63      0.0000    151.6636
#   64      0.0001    163.7791
   0    1.05427E+01    1.0000000000000000
   1    7.89400E+00    0.7487633613539439
   2    4.91480E+00    0.4661795952965805
   3    3.25165E+00    0.3084255978579975
   4    2.61227E+00    0.2477795175240478
   5    2.16693E+00    0.2055379009381563
   6    1.71817E+00    0.1629717607725720
   7    1.43028E+00    0.1356647200042101
   8    1.29628E+00    0.1229553281430506
   9    1.16679E+00    0.1106727259526236
  10    1.01013E+00    0.0958125684076642
  11    8.98051E-01    0.0851820524750948
  12    8.44589E-01    0.0801110848020406
  13    7.96361E-01    0.0755365596433049
  14    7.31678E-01    0.0694012933873498
  15    6.69189E-01    0.0634740310823022
  16    6.23643E-01    0.0591539214566459
  17    5.86469E-01    0.0556278714520702
  18    5.52386E-01    0.0523949744540481
  19    5.17183E-01    0.0490559181942795
  20    4.87661E-01    0.0462557264670273
  21    4.56669E-01    0.0433160461186730
  22    4.34188E-01    0.0411836813971994
  23    4.04516E-01    0.0383691808381414
  24    3.89175E-01    0.0369141005120630
  25    3.58310E-01    0.0339864398953226
  26    3.52236E-01    0.0334103435801742
  27    3.19292E-01    0.0302855647344188
  28    3.29420E-01    0.0312461805306851
  29    2.85111E-01    0.0270434284940080
  30    3.68164E-01    0.0349211987460108
  31    1.77236E-01    0.0168112335873277
  32    4.98501E-01    0.0472838586042315
