  # July 4, 2014 09:19:42
 # jmin,jmax    0   50
 # Eau     0.00200000
 # r0,ra,rb,rdel,tol,Bau,mu   3.5000  25.0000  25.0000   4.0000  1.0000E-03  3.0130E-07  6.8548E+03
 # parity bigJ  0  0        1  0        1  1        2  0        2  1        2  2        3  0        3  1        3  2        3  3
 # jmin,jmax,maxlamb are            0          50         100
 # j and jp are          18          40
 # lam  B-lambda(j,jp)  angle
#   22      9.0874      9.7959
#   23      0.4646     17.3100
#   24      3.4524     22.6815
#   25      0.3601     27.2169
#   26      2.1527     31.2883
#   27      0.2586     35.0638
#   28      1.5085     38.6362
#   29      0.1763     42.0635
#   30      1.0922     45.3845
#   31      0.1100     48.6274
#   32      0.9027     51.8134
#   33      0.0638     54.9591
#   34      0.7728     58.0782
#   35      0.0387     61.1821
#   36      0.5663     64.2809
#   37      0.0266     67.3839
#   38      0.4039     70.4995
#   39      0.0189     73.6360
#   40      0.3310     76.8013
#   41      0.0134     80.0038
#   42      0.2866     83.2520
#   43      0.0098     86.5552
#   44      0.2285     89.9235
#   45      0.0068     93.3681
#   46      0.1624     96.9021
#   47      0.0044    100.5405
#   48      0.1253    104.3014
#   49      0.0027    108.2070
#   50      0.1152    112.2850
#   51      0.0014    116.5713
#   52      0.0914    121.1141
#   53      0.0006    125.9807
#   54      0.0537    131.2707
#   55      0.0002    137.1432
#   56      0.0291    143.8845
#   57      0.0001    152.1214
#   58      0.0249    164.0257
   0    2.27794E+01    1.0000000000000000
   1    1.67106E+01    0.7335842839374729
   2    1.12951E+01    0.4958497406618989
   3    8.05308E+00    0.3535253292308532
   4    6.12404E+00    0.2688415498634130
   5    4.88493E+00    0.2144452905995488
   6    4.13545E+00    0.1815437317325944
   7    3.47332E+00    0.1524767603217289
   8    3.03166E+00    0.1330881035016976
   9    2.61474E+00    0.1147856206255748
  10    2.30928E+00    0.1013757946455086
  11    2.09402E+00    0.0919259863428672
  12    1.98207E+00    0.0870116201492981
  13    1.76376E+00    0.0774277860608461
  14    1.58800E+00    0.0697123496418835
  15    1.40137E+00    0.0615194331534818
  16    1.32137E+00    0.0580071588525767
  17    1.20210E+00    0.0527715872563551
  18    1.16767E+00    0.0512597944470976
  19    1.04426E+00    0.0458424833620854
  20    1.01965E+00    0.0447618053679073
  21    8.85142E-01    0.0388571698341498
  22    9.01322E-01    0.0395674761774771
  23    7.62597E-01    0.0334775340820042
  24    8.18584E-01    0.0359353339971648
  25    6.65076E-01    0.0291964322533607
  26    7.48233E-01    0.0328469716053786
  27    5.91556E-01    0.0259689254403084
  28    6.90342E-01    0.0303055728439190
  29    5.36140E-01    0.0235362084512461
  30    6.53949E-01    0.0287079678010564
  31    4.56459E-01    0.0200382533414028
  32    6.23169E-01    0.0273567238180074
  33    3.31294E-01    0.0145435853840733
  34    6.61670E-01    0.0290469227327594
  35    3.45901E-01    0.0151848218141002
  36    9.19821E-01    0.0403795974543925
