  # July 4, 2014 09:19:42
 # jmin,jmax    0   50
 # Eau     0.00200000
 # r0,ra,rb,rdel,tol,Bau,mu   3.5000  25.0000  25.0000   4.0000  1.0000E-03  3.0130E-07  6.8548E+03
 # parity bigJ  0  0        1  0        1  1        2  0        2  1        2  2        3  0        3  1        3  2        3  3
 # jmin,jmax,maxlamb are            0          50         100
 # j and jp are          12          14
 # lam  B-lambda(j,jp)  angle
#    2   1628.2658      6.0173
#    3     10.7470     12.0638
#    4    198.9632     17.0956
#    5      3.2232     21.8454
#    6     59.8616     26.4863
#    7      0.8471     31.0890
#    8     24.0373     35.6918
#    9      0.2726     40.3200
#   10     11.6040     44.9930
#   11      0.1144     49.7279
#   12      6.4131     54.5411
#   13      0.0580     59.4497
#   14      4.0130     64.4724
#   15      0.0339     69.6306
#   16      2.7544     74.9494
#   17      0.0218     80.4593
#   18      2.1378     86.1985
#   19      0.0150     92.2164
#   20      1.7457     98.5790
#   21      0.0107    105.3787
#   22      1.6198    112.7522
#   23      0.0073    120.9186
#   24      1.6993    130.2721
#   25      0.0042    141.6784
#   26      2.6393    158.1546
   0    4.57294E+02    1.0000000000000000
   1    4.11577E+02    0.9000266563186573
   2    3.87922E+02    0.8482992266620462
   3    3.52169E+02    0.7701149758135905
   4    3.26353E+02    0.7136606420071745
   5    2.95973E+02    0.6472280542411601
   6    2.73511E+02    0.5981086880727455
   7    2.48372E+02    0.5431335200906732
   8    2.29691E+02    0.5022832266716852
   9    2.08776E+02    0.4565464236656936
  10    1.93208E+02    0.4225022823265326
  11    1.75525E+02    0.3838331777697536
  12    1.62468E+02    0.3552813343267020
  13    1.47119E+02    0.3217174030784644
  14    1.35978E+02    0.2973546976537652
  15    1.22447E+02    0.2677642861481931
  16    1.12839E+02    0.2467546737021109
  17    1.00488E+02    0.2197448620763797
  18    9.22444E+01    0.2017179005333138
  19    8.06582E+01    0.1763816357886897
  20    7.36967E+01    0.1611583242769136
  21    6.21496E+01    0.1359073003458731
  22    5.68082E+01    0.1242269293936135
  23    4.33380E+01    0.0947706617511317
  24    4.29043E+01    0.0938220596384055
