  # July 4, 2014 09:19:42
 # jmin,jmax    0   50
 # Eau     0.00200000
 # r0,ra,rb,rdel,tol,Bau,mu   3.5000  25.0000  25.0000   4.0000  1.0000E-03  3.0130E-07  6.8548E+03
 # parity bigJ  0  0        1  0        1  1        2  0        2  1        2  2        3  0        3  1        3  2        3  3
 # jmin,jmax,maxlamb are            0          50         100
 # j and jp are          26          47
 # lam  B-lambda(j,jp)  angle
#   21     21.7181      7.3911
#   22      0.6776     13.0408
#   23      8.8117     17.0727
#   24      0.6781     20.4689
#   25      5.4324     23.5091
#   26      0.5387     26.3194
#   27      3.9135     28.9690
#   28      0.4157     31.5009
#   29      2.8984     33.9436
#   30      0.3150     36.3173
#   31      2.2103     38.6372
#   32      0.2283     40.9145
#   33      1.8004     43.1584
#   34      0.1563     45.3763
#   35      1.3842     47.5741
#   36      0.1017     49.7571
#   37      0.9853     51.9297
#   38      0.0617     54.0957
#   39      0.7016     56.2588
#   40      0.0330     58.4221
#   41      0.5003     60.5885
#   42      0.0162     62.7610
#   43      0.3684     64.9420
#   44      0.0089     67.1344
#   45      0.2634     69.3405
#   46      0.0056     71.5631
#   47      0.1530     73.8047
#   48      0.0036     76.0679
#   49      0.0770     78.3557
#   50      0.0022     80.6710
#   51      0.0463     83.0168
#   52      0.0012     85.3967
#   53      0.0283     87.8141
#   54      0.0005     90.2732
#   55      0.0124     92.7783
#   56      0.0002     95.3346
#   57      0.0040     97.9474
#   58      0.0001    100.6234
#   59      0.0014    103.3698
#   60      0.0000    106.1953
#   61      0.0005    109.1101
#   62      0.0000    112.1265
#   63      0.0002    115.2592
#   64      0.0000    118.5268
#   65      0.0000    121.9528
#   66      0.0000    125.5677
#   67      0.0000    129.4129
#   68      0.0000    133.5462
#   69      0.0000    138.0534
#   70      0.0000    143.0721
#   71      0.0000    148.8494
#   72      0.0000    155.9266
#   73      0.0000    166.1752
   0    3.95660E+01    1.0000000000000000
   1    3.44613E+01    0.8709814146404738
   2    2.67672E+01    0.6765197846350530
   3    1.95264E+01    0.4935147371775352
   4    1.43807E+01    0.3634610795966992
   5    1.12820E+01    0.2851433034773354
   6    9.43637E+00    0.2384969088679454
   7    8.18083E+00    0.2067642040906216
   8    7.20538E+00    0.1821104318441573
   9    6.40126E+00    0.1617869472332541
  10    5.71959E+00    0.1445581693459723
  11    5.13295E+00    0.1297312087934322
  12    4.63703E+00    0.1171972824257318
  13    4.24264E+00    0.1072294150111456
  14    3.94712E+00    0.0997604751268591
  15    3.71083E+00    0.0937882074072101
  16    3.47836E+00    0.0879127666984944
  17    3.23025E+00    0.0816419731529828
  18    2.99562E+00    0.0757120651180061
  19    2.80625E+00    0.0709258012145665
  20    2.65827E+00    0.0671858040495066
  21    2.52875E+00    0.0639122286032923
  22    2.40797E+00    0.0608594670547326
  23    2.29870E+00    0.0580979439888510
  24    2.19732E+00    0.0555355151974859
  25    2.09314E+00    0.0529023896435434
  26    1.98313E+00    0.0501220118113139
  27    1.87581E+00    0.0474096171463984
  28    1.78041E+00    0.0449983545074008
  29    1.69799E+00    0.0429154912782789
  30    1.62361E+00    0.0410355818840378
  31    1.55269E+00    0.0392431459282139
  32    1.48400E+00    0.0375069345897204
  33    1.41836E+00    0.0358478234842495
  34    1.35690E+00    0.0342946960727235
  35    1.30005E+00    0.0328577556428697
  36    1.24833E+00    0.0315505290338056
  37    1.20120E+00    0.0303593222623877
  38    1.15990E+00    0.0293154802486815
  39    1.12212E+00    0.0283607418055099
  40    1.09007E+00    0.0275506961555306
  41    1.05865E+00    0.0267566766997090
  42    1.02807E+00    0.0259835751510595
  43    9.93280E-01    0.0251043737152179
  44    9.58310E-01    0.0242205306468534
  45    8.96037E-01    0.0226466405928785
  46    8.85931E-01    0.0223912075049072
  47    8.37061E-01    0.0211560635172972
  48    8.52735E-01    0.0215522128005937
  49    7.99123E-01    0.0201972166478672
  50    9.32281E-01    0.0235626665320696
  51    6.86389E-01    0.0173479428975017
  52    1.10703E+00    0.0279792600129473
