  # July 4, 2014 09:19:42
 # jmin,jmax    0   50
 # Eau     0.00200000
 # r0,ra,rb,rdel,tol,Bau,mu   3.5000  25.0000  25.0000   4.0000  1.0000E-03  3.0130E-07  6.8548E+03
 # parity bigJ  0  0        1  0        1  1        2  0        2  1        2  2        3  0        3  1        3  2        3  3
 # jmin,jmax,maxlamb are            0          50         100
 # j and jp are          25          45
 # lam  B-lambda(j,jp)  angle
#   20     12.4690      7.5126
#   21      0.7418     13.2668
#   22      4.9148     17.3798
#   23      0.6299     20.8497
#   24      3.2269     23.9603
#   25      0.4936     26.8395
#   26      2.2942     29.5576
#   27      0.3800     32.1580
#   28      1.6832     34.6698
#   29      0.2775     37.1133
#   30      1.3457     39.5040
#   31      0.1836     41.8533
#   32      1.0831     44.1706
#   33      0.1093     46.4633
#   34      0.8007     48.7377
#   35      0.0645     50.9990
#   36      0.5787     53.2519
#   37      0.0439     55.5004
#   38      0.4511     57.7482
#   39      0.0337     59.9988
#   40      0.3948     62.2552
#   41      0.0261     64.5205
#   42      0.3319     66.7976
#   43      0.0196     69.0895
#   44      0.2218     71.3989
#   45      0.0140     73.7289
#   46      0.1426     76.0824
#   47      0.0090     78.4626
#   48      0.1211     80.8728
#   49      0.0049     83.3166
#   50      0.0944     85.7977
#   51      0.0023     88.3203
#   52      0.0506     90.8891
#   53      0.0010     93.5092
#   54      0.0212     96.1864
#   55      0.0004     98.9271
#   56      0.0095    101.7391
#   57      0.0001    104.6312
#   58      0.0041    107.6137
#   59      0.0000    110.6992
#   60      0.0012    113.9029
#   61      0.0000    117.2437
#   62      0.0002    120.7455
#   63      0.0000    124.4397
#   64      0.0000    128.3682
#   65      0.0000    132.5901
#   66      0.0000    137.1931
#   67      0.0000    142.3174
#   68      0.0000    148.2151
#   69      0.0000    155.4386
#   70      0.0000    165.8980
   0    2.46145E+01    1.0000000000000000
   1    2.07296E+01    0.8421711720646400
   2    1.53741E+01    0.6245962434657983
   3    1.09624E+01    0.4453644318412336
   4    8.16972E+00    0.3319067040501194
   5    6.44566E+00    0.2618640840600948
   6    5.25645E+00    0.2135508164388711
   7    4.43778E+00    0.1802910750233912
   8    3.90278E+00    0.1585561993398384
   9    3.51514E+00    0.1428077665052067
  10    3.18413E+00    0.1293596601189525
  11    2.88658E+00    0.1172713416830439
  12    2.60996E+00    0.1060332339059776
  13    2.35326E+00    0.0956046434615515
  14    2.15225E+00    0.0874382426796916
  15    2.03001E+00    0.0824719799798062
  16    1.93846E+00    0.0787526019338778
  17    1.80866E+00    0.0734794376912791
  18    1.64239E+00    0.0667245726243421
  19    1.49770E+00    0.0608463298235705
  20    1.40099E+00    0.0569171195339558
  21    1.32575E+00    0.0538606369919503
  22    1.24744E+00    0.0506788966966520
  23    1.17208E+00    0.0476175129841373
  24    1.11135E+00    0.0451502189572095
  25    1.06077E+00    0.0430952820942860
  26    1.01026E+00    0.0410433930845247
  27    9.58192E-01    0.0389279175259179
  28    9.09815E-01    0.0369625304680357
  29    8.68225E-01    0.0352728776708331
  30    8.32539E-01    0.0338230816312864
  31    8.00275E-01    0.0325123294078032
  32    7.70444E-01    0.0313003866131245
  33    7.42441E-01    0.0301627250465211
  34    7.17363E-01    0.0291439088449279
  35    6.92730E-01    0.0281431404548254
  36    6.72796E-01    0.0273332856750558
  37    6.47947E-01    0.0263237844030267
  38    6.32512E-01    0.0256966870444634
  39    6.04437E-01    0.0245561184436164
  40    5.88310E-01    0.0239009407765139
  41    5.56940E-01    0.0226264692342074
  42    5.43685E-01    0.0220879660522168
  43    4.83045E-01    0.0196244056081245
  44    5.39494E-01    0.0219177134377091
  45    4.30752E-01    0.0174999054594459
  46    5.25595E-01    0.0213530355785715
  47    4.39089E-01    0.0178386287125236
  48    6.14651E-01    0.0249710717060422
  49    3.33846E-01    0.0135629649749495
  50    7.59444E-01    0.0308534813700934
