  # July 4, 2014 09:19:42
 # jmin,jmax    0   50
 # Eau     0.00200000
 # r0,ra,rb,rdel,tol,Bau,mu   3.5000  25.0000  25.0000   4.0000  1.0000E-03  3.0130E-07  6.8548E+03
 # parity bigJ  0  0        1  0        1  1        2  0        2  1        2  2        3  0        3  1        3  2        3  3
 # jmin,jmax,maxlamb are            0          50         100
 # j and jp are          29          45
 # lam  B-lambda(j,jp)  angle
#   16     22.1396      6.2500
#   17      1.9989     11.0714
#   18      7.5350     14.5393
#   19      1.5725     17.4809
#   20      4.4513     20.1301
#   21      1.2513     22.5918
#   22      3.3047     24.9235
#   23      0.9766     27.1603
#   24      2.5891     29.3258
#   25      0.7562     31.4364
#   26      1.9850     33.5042
#   27      0.5877     35.5385
#   28      1.5536     37.5464
#   29      0.4318     39.5337
#   30      1.2460     41.5052
#   31      0.2815     43.4650
#   32      0.9701     45.4163
#   33      0.1598     47.3624
#   34      0.7168     49.3057
#   35      0.0869     51.2486
#   36      0.5437     53.1934
#   37      0.0545     55.1420
#   38      0.4512     57.0963
#   39      0.0404     59.0582
#   40      0.4043     61.0294
#   41      0.0311     63.0117
#   42      0.3266     65.0068
#   43      0.0234     67.0163
#   44      0.2108     69.0421
#   45      0.0169     71.0860
#   46      0.1423     73.1498
#   47      0.0109     75.2354
#   48      0.1212     77.3450
#   49      0.0058     79.4807
#   50      0.0858     81.6449
#   51      0.0026     83.8400
#   52      0.0417     86.0690
#   53      0.0011     88.3347
#   54      0.0172     90.6404
#   55      0.0004     92.9900
#   56      0.0079     95.3875
#   57      0.0001     97.8376
#   58      0.0031    100.3456
#   59      0.0000    102.9177
#   60      0.0008    105.5608
#   61      0.0000    108.2833
#   62      0.0001    111.0951
#   63      0.0000    114.0079
#   64      0.0000    117.0362
#   65      0.0000    120.1980
#   66      0.0000    123.5161
#   67      0.0000    127.0202
#   68      0.0000    130.7507
#   69      0.0000    134.7638
#   70      0.0000    139.1432
#   71      0.0000    144.0231
#   72      0.0000    149.6445
#   73      0.0000    156.5351
#   74      0.0000    166.5188
   0    3.30571E+01    1.0000000000000000
   1    2.88835E+01    0.8737452690280417
   2    2.27278E+01    0.6875324578083293
   3    1.70847E+01    0.5168256274980718
   4    1.30782E+01    0.3956258272280443
   5    1.04720E+01    0.3167868365294905
   6    8.68595E+00    0.2627563482229753
   7    7.42063E+00    0.2244795388775474
   8    6.56485E+00    0.1985913466448942
   9    5.97229E+00    0.1806661606312848
  10    5.47689E+00    0.1656797252042081
  11    4.99311E+00    0.1510453028590119
  12    4.51578E+00    0.1366057464424547
  13    4.06499E+00    0.1229688749381439
  14    3.66694E+00    0.1109277069129022
  15    3.34971E+00    0.1013310496863514
  16    3.11163E+00    0.0941291740219701
  17    2.90341E+00    0.0878301165014978
  18    2.67436E+00    0.0809013871847553
  19    2.43252E+00    0.0735853336214886
  20    2.22934E+00    0.0674392684965251
  21    2.08823E+00    0.0631704183768934
  22    1.97924E+00    0.0598735417630105
  23    1.86666E+00    0.0564679563071241
  24    1.74980E+00    0.0529326813668648
  25    1.64593E+00    0.0497906688774958
  26    1.55734E+00    0.0471108066230558
  27    1.47190E+00    0.0445259218521565
  28    1.38389E+00    0.0418636635157087
  29    1.29939E+00    0.0393074993498176
  30    1.22452E+00    0.0370425740073375
  31    1.15795E+00    0.0350287900998486
  32    1.09510E+00    0.0331274196152483
  33    1.03401E+00    0.0312794423048439
  34    9.75924E-01    0.0295224187130829
  35    9.22242E-01    0.0278984922777879
  36    8.73089E-01    0.0264115665315100
  37    8.27428E-01    0.0250303066857204
  38    7.84516E-01    0.0237321767346295
  39    7.44014E-01    0.0225069532403691
  40    7.06209E-01    0.0213633262832972
  41    6.71749E-01    0.0203208930973162
  42    6.41006E-01    0.0193908875284434
  43    6.13665E-01    0.0185638008422968
  44    5.93326E-01    0.0179485504834576
  45    5.70333E-01    0.0172529965984065
  46    5.61316E-01    0.0169802263995796
  47    5.44320E-01    0.0164660590333222
  48    5.36508E-01    0.0162297577844353
  49    5.24248E-01    0.0158588660246517
  50    5.51380E-01    0.0166796487194475
  51    4.75057E-01    0.0143708160832697
  52    5.51353E-01    0.0166788247609042
  53    4.52721E-01    0.0136951336920158
  54    5.28220E-01    0.0159790281539071
  55    3.67410E-01    0.0111144086970812
  56    6.31053E-01    0.0190897979269439
  57    3.00143E-01    0.0090795333321575
  58    8.50161E-01    0.0257179865894860
