  # July 4, 2014 09:19:42
 # jmin,jmax    0   50
 # Eau     0.00200000
 # r0,ra,rb,rdel,tol,Bau,mu   3.5000  25.0000  25.0000   4.0000  1.0000E-03  3.0130E-07  6.8548E+03
 # parity bigJ  0  0        1  0        1  1        2  0        2  1        2  2        3  0        3  1        3  2        3  3
 # jmin,jmax,maxlamb are            0          50         100
 # j and jp are          26          33
 # lam  B-lambda(j,jp)  angle
#    7    125.4312      5.0851
#    8      2.5812      9.2309
#    9     47.4424     12.3367
#   10      1.5217     15.0629
#   11     27.0680     17.5894
#   12      1.1024     19.9945
#   13     17.5828     22.3199
#   14      0.8221     24.5908
#   15     12.3620     26.8234
#   16      0.6073     29.0291
#   17      8.6353     31.2162
#   18      0.4521     33.3908
#   19      6.3216     35.5580
#   20      0.3422     37.7217
#   21      4.7264     39.8853
#   22      0.2658     42.0517
#   23      3.5292     44.2234
#   24      0.2096     46.4029
#   25      2.7475     48.5922
#   26      0.1655     50.7935
#   27      2.1206     53.0086
#   28      0.1318     55.2396
#   29      1.7012     57.4885
#   30      0.1047     59.7572
#   31      1.3985     62.0477
#   32      0.0822     64.3623
#   33      1.1315     66.7031
#   34      0.0639     69.0725
#   35      0.9407     71.4732
#   36      0.0488     73.9077
#   37      0.8058     76.3792
#   38      0.0363     78.8909
#   39      0.7139     81.4465
#   40      0.0259     84.0499
#   41      0.6180     86.7057
#   42      0.0172     89.4190
#   43      0.4519     92.1955
#   44      0.0109     95.0421
#   45      0.2850     97.9664
#   46      0.0069    100.9775
#   47      0.1953    104.0862
#   48      0.0042    107.3055
#   49      0.1401    110.6513
#   50      0.0024    114.1431
#   51      0.0875    117.8062
#   52      0.0013    121.6733
#   53      0.0580    125.7884
#   54      0.0006    130.2136
#   55      0.0439    135.0409
#   56      0.0002    140.4177
#   57      0.0278    146.6092
#   58      0.0001    154.1960
#   59      0.0174    165.1876
   0    1.05812E+02    1.0000000000000000
   1    9.00477E+01    0.8510153343950705
   2    7.18336E+01    0.6788790140282498
   3    5.81715E+01    0.5497624345907806
   4    4.83388E+01    0.4568366454827960
   5    4.03446E+01    0.3812851851563825
   6    3.39760E+01    0.3210974830936679
   7    2.92889E+01    0.2768014458959094
   8    2.58168E+01    0.2439872591334676
   9    2.29030E+01    0.2164496689286423
  10    2.05007E+01    0.1937462947716039
  11    1.85708E+01    0.1755072171107289
  12    1.70593E+01    0.1612230802956580
  13    1.56615E+01    0.1480129232686059
  14    1.44429E+01    0.1364960497262865
  15    1.34105E+01    0.1267387770169356
  16    1.25837E+01    0.1189250375959380
  17    1.17533E+01    0.1110768186261802
  18    1.10605E+01    0.1045297595425230
  19    1.04082E+01    0.0983651561285780
  20    9.89685E+00    0.0935323196786077
  21    9.36395E+00    0.0884960891746756
  22    8.97637E+00    0.0848331760093148
  23    8.55304E+00    0.0808323658880866
  24    8.25336E+00    0.0780002162428424
  25    7.88971E+00    0.0745634184513611
  26    7.66100E+00    0.0724019493886614
  27    7.35072E+00    0.0694695645481694
  28    7.16253E+00    0.0676911143291826
  29    6.84213E+00    0.0646630806525391
  30    6.68016E+00    0.0631322967111673
  31    6.35382E+00    0.0600481872219444
  32    6.26618E+00    0.0592199458198546
  33    5.95484E+00    0.0562774843203503
  34    5.93629E+00    0.0561022494680781
  35    5.62909E+00    0.0531989217705850
  36    5.65367E+00    0.0534312314948547
  37    5.31397E+00    0.0502208110762440
  38    5.43062E+00    0.0513233064912605
  39    4.97471E+00    0.0470145811257594
  40    5.25671E+00    0.0496796882896743
  41    4.63509E+00    0.0438049122944807
  42    5.04721E+00    0.0476997529031488
  43    4.28304E+00    0.0404778149673569
  44    4.83754E+00    0.0457182257079701
  45    4.02397E+00    0.0380294111837629
  46    4.72954E+00    0.0446975864726589
  47    3.75740E+00    0.0355101612601182
  48    4.71312E+00    0.0445423438814913
  49    3.42288E+00    0.0323486706892876
  50    4.84022E+00    0.0457435583175887
  51    2.87644E+00    0.0271844423198055
  52    5.93579E+00    0.0560975164763794
