  # July 4, 2014 09:19:42
 # jmin,jmax    0   50
 # Eau     0.00200000
 # r0,ra,rb,rdel,tol,Bau,mu   3.5000  25.0000  25.0000   4.0000  1.0000E-03  3.0130E-07  6.8548E+03
 # parity bigJ  0  0        1  0        1  1        2  0        2  1        2  2        3  0        3  1        3  2        3  3
 # jmin,jmax,maxlamb are            0          50         100
 # j and jp are          24          47
 # lam  B-lambda(j,jp)  angle
#   23     16.9154      8.0426
#   24      0.6281     14.1788
#   25      7.0300     18.5497
#   26      0.4432     22.2258
#   27      4.5183     25.5122
#   28      0.3219     28.5468
#   29      3.1956     31.4055
#   30      0.2445     34.1352
#   31      2.3633     36.7676
#   32      0.1792     39.3248
#   33      1.8961     41.8236
#   34      0.1233     44.2766
#   35      1.4802     46.6940
#   36      0.0805     49.0840
#   37      1.0759     51.4534
#   38      0.0494     53.8083
#   39      0.7691     56.1537
#   40      0.0270     58.4941
#   41      0.5432     60.8337
#   42      0.0136     63.1763
#   43      0.3918     65.5255
#   44      0.0076     67.8849
#   45      0.2774     70.2577
#   46      0.0049     72.6473
#   47      0.1630     75.0572
#   48      0.0032     77.4907
#   49      0.0821     79.9515
#   50      0.0020     82.4434
#   51      0.0485     84.9704
#   52      0.0011     87.5369
#   53      0.0301     90.1477
#   54      0.0005     92.8082
#   55      0.0137     95.5242
#   56      0.0002     98.3025
#   57      0.0045    101.1508
#   58      0.0000    104.0781
#   59      0.0015    107.0949
#   60      0.0000    110.2139
#   61      0.0006    113.4505
#   62      0.0000    116.8237
#   63      0.0002    120.3577
#   64      0.0000    124.0838
#   65      0.0000    128.0446
#   66      0.0000    132.2992
#   67      0.0000    136.9359
#   68      0.0000    142.0956
#   69      0.0000    148.0320
#   70      0.0000    155.3003
#   71      0.0000    165.8212
   0    3.47980E+01    1.0000000000000000
   1    2.98407E+01    0.8575407306017325
   2    2.25600E+01    0.6483144009305510
   3    1.59976E+01    0.4597272626423663
   4    1.15948E+01    0.3332034882269692
   5    9.09160E+00    0.2612681489671252
   6    7.63279E+00    0.2193459053513071
   7    6.61222E+00    0.1900173764452043
   8    5.79345E+00    0.1664882391156195
   9    5.11502E+00    0.1469919031049325
  10    4.55002E+00    0.1307554146529303
  11    4.07393E+00    0.1170737968546357
  12    3.67827E+00    0.1057037360893253
  13    3.37302E+00    0.0969316164743066
  14    3.15310E+00    0.0906115401468776
  15    2.97311E+00    0.0854392080388043
  16    2.78274E+00    0.0799686084866063
  17    2.57860E+00    0.0741019707437671
  18    2.39321E+00    0.0687743532476364
  19    2.24281E+00    0.0644522095652449
  20    2.11453E+00    0.0607658739675732
  21    1.99691E+00    0.0573859066055216
  22    1.89422E+00    0.0544349142004794
  23    1.80966E+00    0.0520048246825167
  24    1.73435E+00    0.0498405634597199
  25    1.65777E+00    0.0476399509046733
  26    1.57910E+00    0.0453790585936819
  27    1.50428E+00    0.0432290292504207
  28    1.43775E+00    0.0413169364068649
  29    1.37920E+00    0.0396344655153088
  30    1.32662E+00    0.0381234103210808
  31    1.27801E+00    0.0367265733548005
  32    1.23320E+00    0.0354389209710730
  33    1.19079E+00    0.0342201074687149
  34    1.15154E+00    0.0330920519682077
  35    1.11214E+00    0.0319600168459032
  36    1.07442E+00    0.0308759711904336
  37    1.03354E+00    0.0297012511314957
  38    9.92588E-01    0.0285243219800443
  39    9.48219E-01    0.0272492665887993
  40    9.10295E-01    0.0261594278261158
  41    8.61849E-01    0.0247672297813226
  42    8.64201E-01    0.0248348078687903
  43    8.20295E-01    0.0235730721124585
  44    8.39027E-01    0.0241113902940718
  45    7.92970E-01    0.0227878166874461
  46    8.83259E-01    0.0253825024375496
  47    6.63051E-01    0.0190543171807545
  48    1.03565E+00    0.0297618549181986
