  # July 4, 2014 09:19:42
 # jmin,jmax    0   50
 # Eau     0.00200000
 # r0,ra,rb,rdel,tol,Bau,mu   3.5000  25.0000  25.0000   4.0000  1.0000E-03  3.0130E-07  6.8548E+03
 # parity bigJ  0  0        1  0        1  1        2  0        2  1        2  2        3  0        3  1        3  2        3  3
 # jmin,jmax,maxlamb are            0          50         100
 # j and jp are          18          42
 # lam  B-lambda(j,jp)  angle
#   24      8.6207      9.9868
#   25      0.2898     17.6290
#   26      3.7206     23.0806
#   27      0.2494     27.6746
#   28      2.3784     31.7914
#   29      0.1932     35.6028
#   30      1.6777     39.2041
#   31      0.1439     42.6544
#   32      1.3102     45.9937
#   33      0.1017     49.2509
#   34      0.9751     52.4477
#   35      0.0664     55.6011
#   36      0.6359     58.7251
#   37      0.0410     61.8316
#   38      0.4436     64.9307
#   39      0.0259     68.0320
#   40      0.3458     71.1439
#   41      0.0175     74.2748
#   42      0.2720     77.4329
#   43      0.0114     80.6265
#   44      0.2114     83.8644
#   45      0.0071     87.1556
#   46      0.1568     90.5103
#   47      0.0045     93.9399
#   48      0.1259     97.4572
#   49      0.0028    101.0774
#   50      0.1098    104.8183
#   51      0.0015    108.7021
#   52      0.0780    112.7564
#   53      0.0006    117.0168
#   54      0.0408    121.5311
#   55      0.0002    126.3662
#   56      0.0198    131.6209
#   57      0.0001    137.4534
#   58      0.0113    144.1475
#   59      0.0000    152.3254
#   60      0.0080    164.1425
   0    2.29171E+01    1.0000000000000000
   1    1.75671E+01    0.7665497882408357
   2    1.18982E+01    0.5191855169900197
   3    8.14644E+00    0.3554736175710487
   4    5.83821E+00    0.2547528785866462
   5    4.44634E+00    0.1940182303138236
   6    3.76432E+00    0.1642580486965710
   7    3.31838E+00    0.1447989681523544
   8    2.93870E+00    0.1282314345544266
   9    2.59716E+00    0.1133284053764145
  10    2.28952E+00    0.0999041092459011
  11    2.00569E+00    0.0875193794348557
  12    1.85430E+00    0.0809133867093444
  13    1.75175E+00    0.0764384999975498
  14    1.66318E+00    0.0725734887226941
  15    1.53763E+00    0.0670954068992328
  16    1.43438E+00    0.0625899917258420
  17    1.30975E+00    0.0571514365223946
  18    1.23267E+00    0.0537882463057438
  19    1.14951E+00    0.0501594940928711
  20    1.11445E+00    0.0486293425510706
  21    1.04007E+00    0.0453838837223712
  22    1.01161E+00    0.0441419979625971
  23    9.29061E-01    0.0405400158784534
  24    9.22976E-01    0.0402744799619572
  25    8.27917E-01    0.0361265601661948
  26    8.55101E-01    0.0373127175865807
  27    7.29305E-01    0.0318235751341708
  28    7.91741E-01    0.0345479992671951
  29    6.36803E-01    0.0277872028851165
  30    7.26531E-01    0.0317025233130320
  31    5.73180E-01    0.0250110024047239
  32    7.19736E-01    0.0314060042475973
  33    5.48218E-01    0.0239217327566300
  34    7.62353E-01    0.0332656247725041
  35    4.38419E-01    0.0191306220038553
  36    8.10830E-01    0.0353809697381743
