  # July 4, 2014 09:19:42
 # jmin,jmax    0   50
 # Eau     0.00200000
 # r0,ra,rb,rdel,tol,Bau,mu   3.5000  25.0000  25.0000   4.0000  1.0000E-03  3.0130E-07  6.8548E+03
 # parity bigJ  0  0        1  0        1  1        2  0        2  1        2  2        3  0        3  1        3  2        3  3
 # jmin,jmax,maxlamb are            0          50         100
 # j and jp are          17          45
 # lam  B-lambda(j,jp)  angle
#   28      4.9416     10.7150
#   29      0.0865     18.8928
#   30      2.2168     24.7104
#   31      0.0588     29.6016
#   32      1.5527     33.9758
#   33      0.0424     38.0187
#   34      1.0755     41.8332
#   35      0.0299     45.4836
#   36      0.7034     49.0136
#   37      0.0228     52.4545
#   38      0.4863     55.8304
#   39      0.0183     59.1600
#   40      0.3889     62.4590
#   41      0.0143     65.7407
#   42      0.3302     69.0167
#   43      0.0106     72.2980
#   44      0.2357     75.5945
#   45      0.0074     78.9164
#   46      0.1489     82.2736
#   47      0.0047     85.6765
#   48      0.1222     89.1361
#   49      0.0026     92.6646
#   50      0.1073     96.2757
#   51      0.0013     99.9852
#   52      0.0681    103.8116
#   53      0.0005    107.7776
#   54      0.0314    111.9115
#   55      0.0002    116.2494
#   56      0.0143    120.8400
#   57      0.0001    125.7508
#   58      0.0072    131.0819
#   59      0.0000    136.9929
#   60      0.0031    143.7706
#   61      0.0000    152.0433
#   62      0.0012    163.9880
   0    1.47440E+01    1.0000000000000000
   1    1.12266E+01    0.7614383891371252
   2    7.34243E+00    0.4979958715728045
   3    4.92664E+00    0.3341465330079910
   4    3.59966E+00    0.2441444960357012
   5    2.74087E+00    0.1858975246671709
   6    2.22024E+00    0.1505863855108556
   7    1.92348E+00    0.1304590571598918
   8    1.71755E+00    0.1164914783020381
   9    1.58668E+00    0.1076154149118247
  10    1.51305E+00    0.1026215379882840
  11    1.38535E+00    0.0939606424668899
  12    1.20715E+00    0.0818743968635327
  13    1.06948E+00    0.0725365274878501
  14    1.00530E+00    0.0681838566139354
  15    9.47517E-01    0.0642647020990531
  16    8.85051E-01    0.0600280453947322
  17    8.22467E-01    0.0557832817311686
  18    7.86642E-01    0.0533534832438023
  19    7.46841E-01    0.0506540466876105
  20    7.22076E-01    0.0489743506512320
  21    6.83090E-01    0.0463301601230651
  22    6.67924E-01    0.0453015015827501
  23    6.34079E-01    0.0430060272938267
  24    6.29601E-01    0.0427023050778828
  25    5.93627E-01    0.0402623842194316
  26    5.99184E-01    0.0406393030315960
  27    5.42787E-01    0.0368141900312249
  28    5.73750E-01    0.0389142008987537
  29    4.60491E-01    0.0312325006168163
  30    5.47903E-01    0.0371611868642451
  31    3.73047E-01    0.0253016591648203
  32    4.58365E-01    0.0310882854165643
  33    2.62465E-01    0.0178015177272009
  34    5.76521E-01    0.0391021677962123
