  # July 4, 2014 09:19:42
 # jmin,jmax    0   50
 # Eau     0.00200000
 # r0,ra,rb,rdel,tol,Bau,mu   3.5000  25.0000  25.0000   4.0000  1.0000E-03  3.0130E-07  6.8548E+03
 # parity bigJ  0  0        1  0        1  1        2  0        2  1        2  2        3  0        3  1        3  2        3  3
 # jmin,jmax,maxlamb are            0          50         100
 # j and jp are          16          49
 # lam  B-lambda(j,jp)  angle
#   33      6.0695     11.4807
#   34      0.0260     20.2250
#   35      2.7438     26.4314
#   36      0.0192     31.6392
#   37      1.8725     36.2889
#   38      0.0162     40.5804
#   39      1.3310     44.6250
#   40      0.0120     48.4924
#   41      0.8452     52.2299
#   42      0.0080     55.8719
#   43      0.4675     59.4446
#   44      0.0049     62.9691
#   45      0.2330     66.4627
#   46      0.0029     69.9404
#   47      0.1011     73.4159
#   48      0.0016     76.9017
#   49      0.0417     80.4099
#   50      0.0010     83.9527
#   51      0.0253     87.5427
#   52      0.0005     91.1933
#   53      0.0179     94.9191
#   54      0.0002     98.7370
#   55      0.0088    102.6663
#   56      0.0001    106.7306
#   57      0.0028    110.9588
#   58      0.0000    115.3880
#   59      0.0009    120.0676
#   60      0.0000    125.0660
#   61      0.0004    130.4847
#   62      0.0000    136.4850
#   63      0.0002    143.3569
#   64      0.0000    151.7351
#   65      0.0001    163.8202
   0    1.76001E+01    1.0000000000000000
   1    1.47175E+01    0.8362183719333041
   2    1.05345E+01    0.5985473259585165
   3    6.82525E+00    0.3877972840395871
   4    4.45094E+00    0.2528935536650341
   5    3.32307E+00    0.1888100203326405
   6    2.91624E+00    0.1656952473421074
   7    2.72192E+00    0.1546540513718150
   8    2.48430E+00    0.1411530513464154
   9    2.19921E+00    0.1249548590211395
  10    1.94544E+00    0.1105359736977493
  11    1.74816E+00    0.0993269828230622
  12    1.59184E+00    0.0904450971188120
  13    1.46760E+00    0.0833861002904652
  14    1.37228E+00    0.0779700336860270
  15    1.29216E+00    0.0734181002467132
  16    1.21664E+00    0.0691270218554030
  17    1.14424E+00    0.0650136906185540
  18    1.08030E+00    0.0613804735312153
  19    1.02439E+00    0.0582037448945282
  20    9.76514E-01    0.0554835796643902
  21    9.33000E-01    0.0530112140971846
  22    8.95472E-01    0.0508789232316227
  23    8.60862E-01    0.0489124488957098
  24    8.31429E-01    0.0472401583758851
  25    8.02309E-01    0.0455855805644689
  26    7.76351E-01    0.0441107337755188
  27    7.40873E-01    0.0420949201775497
  28    7.09790E-01    0.0403288464065574
  29    6.37883E-01    0.0362432272803805
  30    5.93372E-01    0.0337142075143184
  31    4.79270E-01    0.0272311500878590
  32    3.94000E-01    0.0223863067486266
