  # July 4, 2014 09:19:42
 # jmin,jmax    0   50
 # Eau     0.00200000
 # r0,ra,rb,rdel,tol,Bau,mu   3.5000  25.0000  25.0000   4.0000  1.0000E-03  3.0130E-07  6.8548E+03
 # parity bigJ  0  0        1  0        1  1        2  0        2  1        2  2        3  0        3  1        3  2        3  3
 # jmin,jmax,maxlamb are            0          50         100
 # j and jp are          28          37
 # lam  B-lambda(j,jp)  angle
#    9     97.1125      5.2548
#   10      3.4267      9.4468
#   11     38.6940     12.5403
#   12      1.9881     15.2227
#   13     23.0918     17.6841
#   14      1.4613     20.0083
#   15     15.3935     22.2403
#   16      1.0921     24.4074
#   17     10.4744     26.5275
#   18      0.8066     28.6130
#   19      7.4403     30.6731
#   20      0.5892     32.7145
#   21      5.4100     34.7427
#   22      0.4484     36.7618
#   23      3.9266     38.7756
#   24      0.3514     40.7870
#   25      2.9074     42.7987
#   26      0.2622     44.8129
#   27      2.2095     46.8318
#   28      0.1899     48.8572
#   29      1.7822     50.8911
#   30      0.1414     52.9351
#   31      1.4284     54.9909
#   32      0.1072     57.0602
#   33      1.1379     59.1446
#   34      0.0813     61.2458
#   35      0.9382     63.3656
#   36      0.0606     65.5056
#   37      0.7978     67.6678
#   38      0.0442     69.8541
#   39      0.7055     72.0666
#   40      0.0311     74.3075
#   41      0.5764     76.5791
#   42      0.0207     78.8840
#   43      0.3857     81.2252
#   44      0.0134     83.6056
#   45      0.2410     86.0287
#   46      0.0086     88.4984
#   47      0.1673     91.0189
#   48      0.0052     93.5951
#   49      0.1068     96.2326
#   50      0.0031     98.9376
#   51      0.0609    101.7177
#   52      0.0017    104.5815
#   53      0.0409    107.5393
#   54      0.0008    110.6035
#   55      0.0264    113.7892
#   56      0.0003    117.1153
#   57      0.0117    120.6059
#   58      0.0001    124.2921
#   59      0.0038    128.2161
#   60      0.0000    132.4374
#   61      0.0014    137.0437
#   62      0.0000    142.1761
#   63      0.0007    148.0880
#   64      0.0000    155.3344
#   65      0.0003    165.8343
   0    9.37729E+01    1.0000000000000000
   1    8.23523E+01    0.8782101013076991
   2    6.68250E+01    0.7126251718710390
   3    5.36261E+01    0.5718717369522344
   4    4.39931E+01    0.4691450542867011
   5    3.65662E+01    0.3899442819789081
   6    3.04705E+01    0.3249393111194064
   7    2.56593E+01    0.2736324116734090
   8    2.21443E+01    0.2361476831117442
   9    1.95818E+01    0.2088215477203558
  10    1.75164E+01    0.1867959869270728
  11    1.57567E+01    0.1680301866148703
  12    1.43250E+01    0.1527631381241263
  13    1.31918E+01    0.1406783587941237
  14    1.22433E+01    0.1305634231754202
  15    1.13744E+01    0.1212977468618028
  16    1.05760E+01    0.1127833810062216
  17    9.90728E+00    0.1056517555436683
  18    9.37518E+00    0.0999774475879889
  19    8.89157E+00    0.0948201901929274
  20    8.41155E+00    0.0897012182655492
  21    7.96629E+00    0.0849529225632558
  22    7.58203E+00    0.0808551634891777
  23    7.23083E+00    0.0771099559848802
  24    6.90491E+00    0.0736343098445067
  25    6.61295E+00    0.0705208511911099
  26    6.36422E+00    0.0678684546541766
  27    6.13499E+00    0.0654239174009085
  28    5.92255E+00    0.0631584028607571
  29    5.71793E+00    0.0609763479108028
  30    5.54360E+00    0.0591172853747049
  31    5.37246E+00    0.0572921879084233
  32    5.23142E+00    0.0557881240219947
  33    5.06303E+00    0.0539924363815146
  34    4.93535E+00    0.0526308327653205
  35    4.76272E+00    0.0507899598306770
  36    4.65512E+00    0.0496424722266836
  37    4.49453E+00    0.0479298863737994
  38    4.40786E+00    0.0470057247814707
  39    4.25467E+00    0.0453720142742176
  40    4.19593E+00    0.0447456842162100
  41    4.01872E+00    0.0428558136414825
  42    4.01338E+00    0.0427989298364449
  43    3.80588E+00    0.0405861017216687
  44    3.84613E+00    0.0410153128840656
  45    3.63127E+00    0.0387240390820772
  46    3.73697E+00    0.0398512868584704
  47    3.38826E+00    0.0361326311468554
  48    3.66692E+00    0.0391042533555634
  49    3.10275E+00    0.0330878942800923
  50    3.58407E+00    0.0382207417694652
  51    2.82198E+00    0.0300937809699425
  52    3.44534E+00    0.0367412674203924
  53    2.51651E+00    0.0268362457681743
  54    3.48200E+00    0.0371322394527627
  55    2.07512E+00    0.0221292418712978
  56    3.96293E+00    0.0422608677608138
