  # July 4, 2014 09:19:42
 # jmin,jmax    0   50
 # Eau     0.00200000
 # r0,ra,rb,rdel,tol,Bau,mu   3.5000  25.0000  25.0000   4.0000  1.0000E-03  3.0130E-07  6.8548E+03
 # parity bigJ  0  0        1  0        1  1        2  0        2  1        2  2        3  0        3  1        3  2        3  3
 # jmin,jmax,maxlamb are            0          50         100
 # j and jp are          12          50
 # lam  B-lambda(j,jp)  angle
#   38      1.4386     13.9921
#   39      0.0060     24.7019
#   40      0.6417     32.3201
#   41      0.0064     38.7332
#   42      0.4117     44.4815
#   43      0.0055     49.8118
#   44      0.2690     54.8627
#   45      0.0041     59.7224
#   46      0.1823     64.4526
#   47      0.0027     69.1000
#   48      0.1231     73.7019
#   49      0.0014     78.2908
#   50      0.0693     82.8961
#   51      0.0007     87.5465
#   52      0.0299     92.2717
#   53      0.0003     97.1039
#   54      0.0120    102.0806
#   55      0.0001    107.2469
#   56      0.0060    112.6610
#   57      0.0000    118.4018
#   58      0.0029    124.5838
#   59      0.0000    131.3881
#   60      0.0011    139.1379
#   61      0.0000    148.5397
#   62      0.0004    162.0458
   0    5.28517E+00    1.0000000000000000
   1    4.02280E+00    0.7611478452772484
   2    2.51724E+00    0.4762843553641008
   3    1.54282E+00    0.2919143801573722
   4    1.12026E+00    0.2119625289303231
   5    9.35641E-01    0.1770314241987949
   6    7.91968E-01    0.1498472361286808
   7    6.71774E-01    0.1271053842533481
   8    5.98921E-01    0.1133209967612399
   9    5.48118E-01    0.1037085987745335
  10    4.95811E-01    0.0938116910292559
  11    4.43589E-01    0.0839308238784472
  12    4.04654E-01    0.0765640645383653
  13    3.73880E-01    0.0707412963674517
  14    3.50396E-01    0.0662979969100700
  15    3.25994E-01    0.0616808129862171
  16    3.08347E-01    0.0583420041623229
  17    2.86855E-01    0.0542755315865999
  18    2.74367E-01    0.0519125542979096
  19    2.52076E-01    0.0476948826108609
  20    2.42398E-01    0.0458637681842108
  21    2.15480E-01    0.0407706257602928
  22    2.08744E-01    0.0394960916334592
  23    1.77513E-01    0.0335869069947417
  24    2.35058E-01    0.0444750369368950
