  # July 4, 2014 09:19:42
 # jmin,jmax    0   50
 # Eau     0.00200000
 # r0,ra,rb,rdel,tol,Bau,mu   3.5000  25.0000  25.0000   4.0000  1.0000E-03  3.0130E-07  6.8548E+03
 # parity bigJ  0  0        1  0        1  1        2  0        2  1        2  2        3  0        3  1        3  2        3  3
 # jmin,jmax,maxlamb are            0          50         100
 # j and jp are          24          43
 # lam  B-lambda(j,jp)  angle
#   19     26.1749      7.6398
#   20      1.7333     13.5044
#   21     10.7405     17.7036
#   22      1.0157     21.2522
#   23      6.6730     24.4384
#   24      0.7547     27.3918
#   25      4.5190     30.1838
#   26      0.5431     32.8583
#   27      3.1864     35.4449
#   28      0.3679     37.9644
#   29      2.2539     40.4321
#   30      0.2452     42.8600
#   31      1.5781     45.2574
#   32      0.1661     47.6321
#   33      1.2577     49.9904
#   34      0.1128     52.3378
#   35      1.0646     54.6791
#   36      0.0744     57.0186
#   37      0.8664     59.3601
#   38      0.0463     61.7074
#   39      0.7310     64.0638
#   40      0.0276     66.4326
#   41      0.5704     68.8171
#   42      0.0173     71.2205
#   43      0.3641     73.6461
#   44      0.0117     76.0974
#   45      0.2266     78.5778
#   46      0.0076     81.0911
#   47      0.1512     83.6414
#   48      0.0045     86.2330
#   49      0.0877     88.8706
#   50      0.0027     91.5597
#   51      0.0499     94.3061
#   52      0.0015     97.1167
#   53      0.0342     99.9992
#   54      0.0007    102.9627
#   55      0.0196    106.0179
#   56      0.0002    109.1776
#   57      0.0075    112.4573
#   58      0.0001    115.8765
#   59      0.0024    119.4594
#   60      0.0000    123.2382
#   61      0.0009    127.2557
#   62      0.0000    131.5723
#   63      0.0004    136.2774
#   64      0.0000    141.5142
#   65      0.0001    147.5403
#   66      0.0000    154.9196
#   67      0.0000    165.6034
   0    4.75476E+01    1.0000000000000000
   1    4.06018E+01    0.8539199301252567
   2    3.09750E+01    0.6514538867504147
   3    2.28774E+01    0.4811473835834746
   4    1.75302E+01    0.3686870897951300
   5    1.40519E+01    0.2955333851293471
   6    1.14522E+01    0.2408585991978871
   7    9.38053E+00    0.1972873625450004
   8    7.86182E+00    0.1653464528632166
   9    6.89169E+00    0.1449430664822815
  10    6.27607E+00    0.1319956638635886
  11    5.76666E+00    0.1212818240634792
  12    5.25420E+00    0.1105040918784120
  13    4.76202E+00    0.1001528623531102
  14    4.33483E+00    0.0911683140542579
  15    3.98919E+00    0.0838988645958347
  16    3.70887E+00    0.0780033504079918
  17    3.46026E+00    0.0727746339598658
  18    3.23721E+00    0.0680836968505110
  19    3.05695E+00    0.0642923662508617
  20    2.90937E+00    0.0611885241140600
  21    2.75564E+00    0.0579555335599081
  22    2.58824E+00    0.0544347123299694
  23    2.43685E+00    0.0512508676821160
  24    2.32483E+00    0.0488949168746740
  25    2.23789E+00    0.0470663205297393
  26    2.15518E+00    0.0453268927580772
  27    2.06556E+00    0.0434419326866676
  28    1.97749E+00    0.0415896901915412
  29    1.89322E+00    0.0398173838956688
  30    1.81856E+00    0.0382472087585424
  31    1.74681E+00    0.0367382635391293
  32    1.68305E+00    0.0353970903458421
  33    1.61602E+00    0.0339873446197640
  34    1.56168E+00    0.0328445836168416
  35    1.48962E+00    0.0313290807255095
  36    1.44812E+00    0.0304561593225147
  37    1.36250E+00    0.0286554262944598
  38    1.33105E+00    0.0279941369973089
  39    1.24332E+00    0.0261489810683222
  40    1.21890E+00    0.0256353105885797
  41    1.12705E+00    0.0237037132612948
  42    1.17817E+00    0.0247788151627652
  43    1.02874E+00    0.0216361009480978
  44    1.07789E+00    0.0226697023359480
  45    8.30335E-01    0.0174632465642081
  46    1.07591E+00    0.0226281333116938
  47    5.00625E-01    0.0105289322073676
  48    1.41936E+00    0.0298513997402723
