  # July 4, 2014 09:19:42
 # jmin,jmax    0   50
 # Eau     0.00200000
 # r0,ra,rb,rdel,tol,Bau,mu   3.5000  25.0000  25.0000   4.0000  1.0000E-03  3.0130E-07  6.8548E+03
 # parity bigJ  0  0        1  0        1  1        2  0        2  1        2  2        3  0        3  1        3  2        3  3
 # jmin,jmax,maxlamb are            0          50         100
 # j and jp are          22          30
 # lam  B-lambda(j,jp)  angle
#    8    109.3538      6.1814
#    9      3.3904     11.1672
#   10     29.9511     14.8749
#   11      1.5437     18.1115
#   12     13.5670     21.0989
#   13      0.8315     23.9345
#   14      7.5844     26.6707
#   15      0.4507     29.3391
#   16      4.8360     31.9607
#   17      0.2644     34.5502
#   18      3.3040     37.1184
#   19      0.1694     39.6737
#   20      2.4033     42.2228
#   21      0.1158     44.7712
#   22      1.8699     47.3238
#   23      0.0879     49.8849
#   24      1.4544     52.4582
#   25      0.0718     55.0476
#   26      1.2114     57.6565
#   27      0.0594     60.2884
#   28      1.0406     62.9468
#   29      0.0492     65.6353
#   30      0.8580     68.3577
#   31      0.0407     71.1180
#   32      0.7183     73.9204
#   33      0.0329     76.7696
#   34      0.6498     79.6708
#   35      0.0257     82.6297
#   36      0.5204     85.6526
#   37      0.0200     88.7471
#   38      0.3795     91.9214
#   39      0.0154     95.1855
#   40      0.3140     98.5511
#   41      0.0116    102.0320
#   42      0.2849    105.6455
#   43      0.0084    109.4125
#   44      0.2570    113.3601
#   45      0.0057    117.5232
#   46      0.2170    121.9490
#   47      0.0035    126.7038
#   48      0.1771    131.8859
#   49      0.0020    137.6531
#   50      0.1800    144.2886
#   51      0.0009    152.4135
#   52      0.2918    164.1784
   0    8.12987E+01    1.0000000000000000
   1    6.76996E+01    0.8327267023903855
   2    5.81602E+01    0.7153889080979592
   3    4.97331E+01    0.6117329731075974
   4    4.41671E+01    0.5432693194212030
   5    3.83908E+01    0.4722188266399062
   6    3.40987E+01    0.4194252299885472
   7    2.96440E+01    0.3646307917690911
   8    2.65437E+01    0.3264961086071350
   9    2.34409E+01    0.2883304365751589
  10    2.11680E+01    0.2603729518612113
  11    1.87736E+01    0.2309209996948673
  12    1.71951E+01    0.2115048994875332
  13    1.54211E+01    0.1896844569647011
  14    1.42142E+01    0.1748388705193631
  15    1.28165E+01    0.1576473341135680
  16    1.19803E+01    0.1473612200847328
  17    1.09098E+01    0.1341938555428015
  18    1.02497E+01    0.1260749868779490
  19    9.33561E+00    0.1148309358795833
  20    8.87528E+00    0.1091687491701278
  21    8.13839E+00    0.1001047846513429
  22    7.80213E+00    0.0959686192513479
  23    7.11552E+00    0.0875231638027189
  24    6.87156E+00    0.0845223293958006
  25    6.23883E+00    0.0767396378673531
  26    6.08483E+00    0.0748452976665519
  27    5.48774E+00    0.0675009005727381
  28    5.40920E+00    0.0665349121072635
  29    4.83480E+00    0.0594695107990171
  30    4.80933E+00    0.0591562726744065
  31    4.23692E+00    0.0521154985586051
  32    4.24662E+00    0.0522347768367139
  33    3.70629E+00    0.0455885024152294
  34    3.76410E+00    0.0462995850469202
  35    3.17128E+00    0.0390077619896591
  36    3.37582E+00    0.0415237026181032
  37    2.63795E+00    0.0324476199469853
  38    2.99275E+00    0.0368117968378361
  39    2.19312E+00    0.0269760920638784
  40    2.71982E+00    0.0334546184499835
  41    1.73802E+00    0.0213782385358472
  42    2.54032E+00    0.0312467732125470
  43    1.26682E+00    0.0155822314555042
  44    2.81908E+00    0.0346755326457824
