  # July 4, 2014 09:19:42
 # jmin,jmax    0   50
 # Eau     0.00200000
 # r0,ra,rb,rdel,tol,Bau,mu   3.5000  25.0000  25.0000   4.0000  1.0000E-03  3.0130E-07  6.8548E+03
 # parity bigJ  0  0        1  0        1  1        2  0        2  1        2  2        3  0        3  1        3  2        3  3
 # jmin,jmax,maxlamb are            0          50         100
 # j and jp are          30          44
 # lam  B-lambda(j,jp)  angle
#   14     30.7457      5.8147
#   15      4.3410     10.3269
#   16     10.1130     13.5881
#   17      2.7963     16.3658
#   18      5.8987     18.8766
#   19      1.8331     21.2171
#   20      4.2528     23.4400
#   21      1.2750     25.5776
#   22      3.1434     27.6512
#   23      0.9403     29.6759
#   24      2.5816     31.6626
#   25      0.7245     33.6198
#   26      2.1838     35.5538
#   27      0.5721     37.4699
#   28      1.6544     39.3724
#   29      0.4558     41.2649
#   30      1.2874     43.1505
#   31      0.3606     45.0317
#   32      1.0278     46.9110
#   33      0.2716     48.7904
#   34      0.7546     50.6720
#   35      0.1862     52.5574
#   36      0.5706     54.4483
#   37      0.1168     56.3464
#   38      0.4349     58.2531
#   39      0.0698     60.1701
#   40      0.3287     62.0987
#   41      0.0402     64.0405
#   42      0.2691     65.9970
#   43      0.0237     67.9697
#   44      0.2090     69.9602
#   45      0.0157     71.9703
#   46      0.1564     74.0015
#   47      0.0106     76.0559
#   48      0.1260     78.1352
#   49      0.0060     80.2416
#   50      0.0866     82.3774
#   51      0.0027     84.5450
#   52      0.0426     86.7471
#   53      0.0011     88.9866
#   54      0.0177     91.2668
#   55      0.0005     93.5913
#   56      0.0081     95.9642
#   57      0.0002     98.3901
#   58      0.0032    100.8742
#   59      0.0000    103.4227
#   60      0.0009    106.0424
#   61      0.0000    108.7416
#   62      0.0001    111.5302
#   63      0.0000    114.4197
#   64      0.0000    117.4246
#   65      0.0000    120.5627
#   66      0.0000    123.8568
#   67      0.0000    127.3364
#   68      0.0000    131.0414
#   69      0.0000    135.0280
#   70      0.0000    139.3794
#   71      0.0000    144.2290
#   72      0.0000    149.8163
#   73      0.0000    156.6664
#   74      0.0000    166.5928
   0    4.14690E+01    1.0000000000000000
   1    3.65763E+01    0.8820139668330451
   2    2.92783E+01    0.7060291628818300
   3    2.24460E+01    0.5412716637981208
   4    1.74544E+01    0.4209025779605957
   5    1.41494E+01    0.3412045155798701
   6    1.19154E+01    0.2873331858895082
   7    1.03459E+01    0.2494844870672347
   8    9.19681E+00    0.2217754162434384
   9    8.24034E+00    0.1987106776861552
  10    7.33495E+00    0.1768777080890889
  11    6.49214E+00    0.1565538485707124
  12    5.77970E+00    0.1393739377309958
  13    5.20420E+00    0.1254960481390483
  14    4.71814E+00    0.1137750127710491
  15    4.29135E+00    0.1034833301150621
  16    3.92533E+00    0.0946568931476305
  17    3.61533E+00    0.0871813408305722
  18    3.34135E+00    0.0805745745038737
  19    3.09426E+00    0.0746161861123839
  20    2.87808E+00    0.0694031313867784
  21    2.68526E+00    0.0647534732763308
  22    2.49637E+00    0.0601983104357526
  23    2.30636E+00    0.0556165217895463
  24    2.12974E+00    0.0513574628306274
  25    1.97755E+00    0.0476872855087852
  26    1.84680E+00    0.0445345318750856
  27    1.73364E+00    0.0418055933636600
  28    1.64032E+00    0.0395551848325476
  29    1.56464E+00    0.0377304375390586
  30    1.49366E+00    0.0360186744367916
  31    1.41415E+00    0.0341012728119573
  32    1.32496E+00    0.0319505448614956
  33    1.23542E+00    0.0297914040494276
  34    1.15491E+00    0.0278498883093858
  35    1.08601E+00    0.0261885602543728
  36    1.02610E+00    0.0247437200742321
  37    9.71400E-01    0.0234247141122694
  38    9.20138E-01    0.0221885638954673
  39    8.72239E-01    0.0210335024144000
  40    8.28605E-01    0.0199812838619394
  41    7.90085E-01    0.0190524038447839
  42    7.56851E-01    0.0182509817891772
  43    7.28439E-01    0.0175658650607703
  44    7.06945E-01    0.0170475522005386
  45    6.84925E-01    0.0165165484658307
  46    6.75968E-01    0.0163005430261500
  47    6.59702E-01    0.0159083109532747
  48    6.52918E-01    0.0157447113936453
  49    6.37314E-01    0.0153684394123035
  50    6.37341E-01    0.0153690898670133
  51    5.63255E-01    0.0135825362336799
  52    6.00848E-01    0.0144890725078569
  53    5.12532E-01    0.0123593982826384
  54    6.25288E-01    0.0150784438270905
  55    5.11604E-01    0.0123370120616830
  56    6.99538E-01    0.0168689346888081
  57    5.06247E-01    0.0122078224090220
  58    7.83124E-01    0.0188845415109030
  59    4.65689E-01    0.0112298040199329
  60    9.86451E-01    0.0237876542151806
