  # July 4, 2014 09:19:42
 # jmin,jmax    0   50
 # Eau     0.00200000
 # r0,ra,rb,rdel,tol,Bau,mu   3.5000  25.0000  25.0000   4.0000  1.0000E-03  3.0130E-07  6.8548E+03
 # parity bigJ  0  0        1  0        1  1        2  0        2  1        2  2        3  0        3  1        3  2        3  3
 # jmin,jmax,maxlamb are            0          50         100
 # j and jp are          30          34
 # lam  B-lambda(j,jp)  angle
#    4    711.6783      3.5319
#    5     34.1171      6.6124
#    6    147.6645      9.0161
#    7     14.5276     11.1896
#    8     54.9497     13.2484
#    9      6.6237     15.2406
#   10     26.1912     17.1910
#   11      3.2038     19.1141
#   12     14.0935     21.0190
#   13      2.0063     22.9119
#   14      8.3112     24.7974
#   15      1.3652     26.6788
#   16      5.3285     28.5586
#   17      0.9267     30.4390
#   18      3.5840     32.3218
#   19      0.6446     34.2084
#   20      2.7541     36.1004
#   21      0.4534     37.9987
#   22      2.1605     39.9048
#   23      0.3007     41.8196
#   24      1.6525     43.7441
#   25      0.1857     45.6796
#   26      1.3533     47.6269
#   27      0.1248     49.5872
#   28      1.1199     51.5615
#   29      0.0974     53.5510
#   30      0.8794     55.5567
#   31      0.0782     57.5799
#   32      0.7642     59.6219
#   33      0.0622     61.6839
#   34      0.6590     63.7674
#   35      0.0498     65.8739
#   36      0.4897     68.0050
#   37      0.0400     70.1625
#   38      0.3735     72.3481
#   39      0.0317     74.5641
#   40      0.3164     76.8126
#   41      0.0244     79.0960
#   42      0.2745     81.4171
#   43      0.0180     83.7789
#   44      0.2207     86.1847
#   45      0.0126     88.6383
#   46      0.1577     91.1438
#   47      0.0085     93.7061
#   48      0.1215     96.3307
#   49      0.0053     99.0238
#   50      0.1075    101.7928
#   51      0.0028    104.6464
#   52      0.0782    107.5947
#   53      0.0012    110.6502
#   54      0.0405    113.8280
#   55      0.0005    117.1470
#   56      0.0184    120.6310
#   57      0.0002    124.3113
#   58      0.0092    128.2302
#   59      0.0001    132.4469
#   60      0.0040    137.0493
#   61      0.0000    142.1785
#   62      0.0012    148.0880
#   63      0.0000    155.3328
#   64      0.0004    165.8323
   0    1.92677E+02    1.0000000000000000
   1    1.83588E+02    0.9528277966095238
   2    1.71292E+02    0.8890134260348947
   3    1.59948E+02    0.8301350119074178
   4    1.49708E+02    0.7769915002855765
   5    1.39979E+02    0.7264949160813545
   6    1.30770E+02    0.6786985667173732
   7    1.22068E+02    0.6335384871799197
   8    1.13840E+02    0.5908332527664826
   9    1.06175E+02    0.5510536330409963
  10    9.90861E+01    0.5142602646956893
  11    9.25039E+01    0.4800985063868097
  12    8.64248E+01    0.4485479811040839
  13    8.08147E+01    0.4194309434242719
  14    7.56163E+01    0.3924511910255662
  15    7.08538E+01    0.3677337464589358
  16    6.65335E+01    0.3453114677978855
  17    6.25426E+01    0.3245983416199423
  18    5.88078E+01    0.3052146399959165
  19    5.53451E+01    0.2872430777853255
  20    5.21701E+01    0.2707648082935146
  21    4.92362E+01    0.2555377684322745
  22    4.65150E+01    0.2414145368587075
  23    4.39779E+01    0.2282466831715805
  24    4.16320E+01    0.2160713244442598
  25    3.94584E+01    0.2047904592200430
  26    3.74639E+01    0.1944388493294114
  27    3.55887E+01    0.1847066018958307
  28    3.38269E+01    0.1755627427928270
  29    3.21342E+01    0.1667775749741394
  30    3.05595E+01    0.1586047420950883
  31    2.90667E+01    0.1508571045930031
  32    2.77019E+01    0.1437739250532896
  33    2.63849E+01    0.1369384189425749
  34    2.51866E+01    0.1307194423194651
  35    2.39852E+01    0.1244840296864247
  36    2.29322E+01    0.1190187516989516
  37    2.18121E+01    0.1132054778489751
  38    2.08832E+01    0.1083843063338347
  39    1.98259E+01    0.1028969251871730
  40    1.89896E+01    0.0985564748108853
  41    1.79998E+01    0.0934193897994317
  42    1.72375E+01    0.0894630211053816
  43    1.62953E+01    0.0845733102848063
  44    1.56198E+01    0.0810671872656978
  45    1.46844E+01    0.0762127466082482
  46    1.40859E+01    0.0731062537500740
  47    1.31165E+01    0.0680748635959016
  48    1.26130E+01    0.0654620514620671
  49    1.16267E+01    0.0603429099316840
  50    1.11437E+01    0.0578360926344493
  51    1.01687E+01    0.0527761279804196
  52    9.87616E+00    0.0512576229419843
  53    8.76959E+00    0.0455144773779117
  54    8.62740E+00    0.0447765277817729
  55    7.36428E+00    0.0382208898658312
  56    7.45168E+00    0.0386745015993205
  57    5.94740E+00    0.0308672441048602
  58    6.38605E+00    0.0331438552046385
  59    4.24606E+00    0.0220372123208282
  60    5.44561E+00    0.0282629305250106
