  # July 4, 2014 09:19:42
 # jmin,jmax    0   50
 # Eau     0.00200000
 # r0,ra,rb,rdel,tol,Bau,mu   3.5000  25.0000  25.0000   4.0000  1.0000E-03  3.0130E-07  6.8548E+03
 # parity bigJ  0  0        1  0        1  1        2  0        2  1        2  2        3  0        3  1        3  2        3  3
 # jmin,jmax,maxlamb are            0          50         100
 # j and jp are          28          49
 # lam  B-lambda(j,jp)  angle
#   21     23.5100      6.9825
#   22      1.9241     12.3161
#   23     10.9832     16.1207
#   24      0.9672     19.3239
#   25      7.3495     22.1897
#   26      0.5162     24.8372
#   27      5.2938     27.3319
#   28      0.2669     29.7140
#   29      3.9874     32.0106
#   30      0.1533     34.2408
#   31      3.1386     36.4186
#   32      0.1052     38.5547
#   33      2.5516     40.6576
#   34      0.0777     42.7340
#   35      2.1446     44.7897
#   36      0.0580     46.8294
#   37      1.7914     48.8570
#   38      0.0417     50.8761
#   39      1.3220     52.8899
#   40      0.0281     54.9011
#   41      0.8215     56.9124
#   42      0.0179     58.9261
#   43      0.4500     60.9445
#   44      0.0107     62.9697
#   45      0.2134     65.0039
#   46      0.0060     67.0490
#   47      0.0835     69.1072
#   48      0.0036     71.1804
#   49      0.0395     73.2708
#   50      0.0022     75.3804
#   51      0.0287     77.5116
#   52      0.0011     79.6667
#   53      0.0165     81.8481
#   54      0.0004     84.0585
#   55      0.0058     86.3008
#   56      0.0001     88.5781
#   57      0.0016     90.8937
#   58      0.0000     93.2515
#   59      0.0006     95.6556
#   60      0.0000     98.1108
#   61      0.0003    100.6225
#   62      0.0000    103.1967
#   63      0.0001    105.8405
#   64      0.0000    108.5623
#   65      0.0000    111.3719
#   66      0.0000    114.2811
#   67      0.0000    117.3042
#   68      0.0000    120.4593
#   69      0.0000    123.7691
#   70      0.0000    127.2631
#   71      0.0000    130.9814
#   72      0.0000    134.9801
#   73      0.0000    139.3424
#   74      0.0000    144.2018
#   75      0.0000    149.7979
#   76      0.0000    156.6556
#   77      0.0000    166.5891
   0    4.71781E+01    1.0000000000000000
   1    4.14588E+01    0.8787728670595764
   2    3.23915E+01    0.6865803526469366
   3    2.32327E+01    0.4924475321174799
   4    1.63293E+01    0.3461196702674239
   5    1.22612E+01    0.2598911830676928
   6    1.02251E+01    0.2167344974709836
   7    9.03052E+00    0.1914134914923550
   8    7.89645E+00    0.1673753957229794
   9    6.66763E+00    0.1413288709329622
  10    5.56463E+00    0.1179493867797320
  11    4.80912E+00    0.1019354629319961
  12    4.41054E+00    0.0934871158176431
  13    4.19962E+00    0.0890163395436234
  14    3.99669E+00    0.0847148648926958
  15    3.73502E+00    0.0791684381389138
  16    3.45189E+00    0.0731672471878071
  17    3.20393E+00    0.0679114217818322
  18    3.01096E+00    0.0638210605284415
  19    2.86173E+00    0.0606580957151229
  20    2.73920E+00    0.0580608489430487
  21    2.62851E+00    0.0557147377441769
  22    2.51663E+00    0.0533432577390374
  23    2.39944E+00    0.0508591865141447
  24    2.28707E+00    0.0484774622937471
  25    2.19407E+00    0.0465061173019671
  26    2.12382E+00    0.0450170764615175
  27    2.06613E+00    0.0437943603679897
  28    2.00884E+00    0.0425799503441758
  29    1.94813E+00    0.0412931706275491
  30    1.88793E+00    0.0400171938648546
  31    1.83297E+00    0.0388521692126941
  32    1.78439E+00    0.0378224598887111
  33    1.74045E+00    0.0368909770857572
  34    1.69904E+00    0.0360134134588017
  35    1.65914E+00    0.0351674950737120
  36    1.62058E+00    0.0343502540038712
  37    1.58352E+00    0.0335647444251651
  38    1.54803E+00    0.0328123873172190
  39    1.51401E+00    0.0320914111521145
  40    1.48129E+00    0.0313977694343821
  41    1.44961E+00    0.0307262550270260
  42    1.41861E+00    0.0300693307235948
  43    1.38792E+00    0.0294188103831686
  44    1.35739E+00    0.0287716180695063
  45    1.32616E+00    0.0281097643384759
  46    1.29675E+00    0.0274862740200016
  47    1.26750E+00    0.0268661893711853
  48    1.24193E+00    0.0263241917051007
  49    1.22562E+00    0.0259784843323133
  50    1.20758E+00    0.0255961417899622
  51    1.15635E+00    0.0245104088553288
  52    1.14265E+00    0.0242200091491467
  53    1.11313E+00    0.0235943180458797
  54    1.17218E+00    0.0248458910352854
  55    1.24951E+00    0.0264849764075051
  56    1.57828E+00    0.0334537302345731
