  # July 4, 2014 09:19:42
 # jmin,jmax    0   50
 # Eau     0.00200000
 # r0,ra,rb,rdel,tol,Bau,mu   3.5000  25.0000  25.0000   4.0000  1.0000E-03  3.0130E-07  6.8548E+03
 # parity bigJ  0  0        1  0        1  1        2  0        2  1        2  2        3  0        3  1        3  2        3  3
 # jmin,jmax,maxlamb are            0          50         100
 # j and jp are          31          32
 # lam  B-lambda(j,jp)  angle
#    1   1247.3916      1.7908
#    2      8.8428      4.0054
#    3    217.0095      5.9424
#    4      5.8372      7.8125
#    5     96.7547      9.6558
#    6      3.5166     11.4867
#    7     55.0102     13.3118
#    8      2.5521     15.1346
#    9     35.4207     16.9574
#   10      1.9056     18.7818
#   11     23.4673     20.6090
#   12      1.5072     22.4400
#   13     16.3333     24.2757
#   14      1.2335     26.1167
#   15     11.6580     27.9638
#   16      0.9657     29.8178
#   17      8.4004     31.6792
#   18      0.7038     33.5489
#   19      6.3278     35.4274
#   20      0.4865     37.3154
#   21      4.6838     39.2138
#   22      0.3538     41.1232
#   23      3.5554     43.0443
#   24      0.2792     44.9781
#   25      2.7686     46.9253
#   26      0.2176     48.8869
#   27      2.1118     50.8637
#   28      0.1648     52.8567
#   29      1.7112     54.8670
#   30      0.1270     56.8957
#   31      1.4052     58.9439
#   32      0.0994     61.0130
#   33      1.1315     63.1042
#   34      0.0779     65.2191
#   35      0.9371     67.3591
#   36      0.0599     69.5261
#   37      0.7978     71.7219
#   38      0.0445     73.9484
#   39      0.7051     76.2080
#   40      0.0315     78.5030
#   41      0.5926     80.8362
#   42      0.0207     83.2105
#   43      0.4120     85.6293
#   44      0.0132     88.0963
#   45      0.2566     90.6158
#   46      0.0085     93.1925
#   47      0.1774     95.8320
#   48      0.0052     98.5406
#   49      0.1196    101.3256
#   50      0.0030    104.1958
#   51      0.0700    107.1615
#   52      0.0017    110.2350
#   53      0.0462    113.4317
#   54      0.0008    116.7703
#   55      0.0316    120.2751
#   56      0.0003    123.9775
#   57      0.0156    127.9198
#   58      0.0001    132.1618
#   59      0.0055    136.7919
#   60      0.0000    141.9519
#   61      0.0021    147.8969
#   62      0.0000    155.1853
#   63      0.0015    165.7482
   0    1.78115E+02    1.0000000000000000
   1    1.63572E+02    0.9183463245248792
   2    1.44205E+02    0.8096147152392824
   3    1.27663E+02    0.7167422660743201
   4    1.14854E+02    0.6448285070661695
   5    1.04223E+02    0.5851416562682896
   6    9.51493E+01    0.5342005645384409
   7    8.77450E+01    0.4926301590658778
   8    8.18943E+01    0.4597826663450367
   9    7.70349E+01    0.4325003682186258
  10    7.27565E+01    0.4084798887078580
  11    6.90092E+01    0.3874413078493850
  12    6.57939E+01    0.3693893064008502
  13    6.29680E+01    0.3535235638801597
  14    6.03778E+01    0.3389818143624875
  15    5.79719E+01    0.3254742771874273
  16    5.58176E+01    0.3133793065531653
  17    5.38947E+01    0.3025834939607155
  18    5.20966E+01    0.2924880791896771
  19    5.03768E+01    0.2828323350947795
  20    4.87942E+01    0.2739470542090274
  21    4.73374E+01    0.2657682538345366
  22    4.59662E+01    0.2580699014042980
  23    4.46484E+01    0.2506711925904601
  24    4.34096E+01    0.2437161363721053
  25    4.22198E+01    0.2370361274041927
  26    4.10974E+01    0.2307349570293970
  27    4.00104E+01    0.2246319445393510
  28    3.90140E+01    0.2190376348632024
  29    3.80325E+01    0.2135271648885531
  30    3.71267E+01    0.2084420668913341
  31    3.61922E+01    0.2031955699377544
  32    3.53516E+01    0.1984758728366444
  33    3.44907E+01    0.1936426209028594
  34    3.37517E+01    0.1894938172877634
  35    3.29811E+01    0.1851669733502624
  36    3.23258E+01    0.1814881218972129
  37    3.15893E+01    0.1773532539898491
  38    3.09945E+01    0.1740134712035114
  39    3.02483E+01    0.1698243752808752
  40    2.97191E+01    0.1668531549499334
  41    2.89713E+01    0.1626548059436530
  42    2.84967E+01    0.1599904600739099
  43    2.77528E+01    0.1558138503909400
  44    2.73658E+01    0.1536408524156176
  45    2.65436E+01    0.1490247113213419
  46    2.63468E+01    0.1479197320815979
  47    2.53835E+01    0.1425116886238929
  48    2.53614E+01    0.1423875741890519
  49    2.42677E+01    0.1362470788593517
  50    2.44289E+01    0.1371523015834898
  51    2.33292E+01    0.1309778232148982
  52    2.36686E+01    0.1328834423282447
  53    2.24074E+01    0.1258028861525521
  54    2.29944E+01    0.1290983199140692
  55    2.14818E+01    0.1206063355420899
  56    2.24803E+01    0.1262118693311174
  57    2.05590E+01    0.1154252397481506
  58    2.23986E+01    0.1257531042855984
  59    1.94334E+01    0.1091059643759923
  60    2.34357E+01    0.1315762700785402
  61    1.78742E+01    0.1003517815260426
  62    3.10159E+01    0.1741338978452632
