  # July 4, 2014 09:19:42
 # jmin,jmax    0   50
 # Eau     0.00200000
 # r0,ra,rb,rdel,tol,Bau,mu   3.5000  25.0000  25.0000   4.0000  1.0000E-03  3.0130E-07  6.8548E+03
 # parity bigJ  0  0        1  0        1  1        2  0        2  1        2  2        3  0        3  1        3  2        3  3
 # jmin,jmax,maxlamb are            0          50         100
 # j and jp are          24          31
 # lam  B-lambda(j,jp)  angle
#    7    117.8667      5.4535
#    8      1.3984      9.9017
#    9     45.1607     13.2352
#   10      0.9276     16.1624
#   11     26.5730     18.8764
#   12      0.6920     21.4614
#   13     17.0636     23.9622
#   14      0.5437     26.4058
#   15     11.6109     28.8098
#   16      0.4491     31.1866
#   17      8.3165     33.5452
#   18      0.3549     35.8925
#   19      6.1171     38.2339
#   20      0.2757     40.5739
#   21      4.5540     42.9165
#   22      0.2187     45.2648
#   23      3.4218     47.6220
#   24      0.1750     49.9908
#   25      2.6639     52.3740
#   26      0.1379     54.7739
#   27      2.0603     57.1932
#   28      0.1076     59.6345
#   29      1.6549     62.1003
#   30      0.0848     64.5934
#   31      1.3763     67.1166
#   32      0.0666     69.6729
#   33      1.1264     72.2656
#   34      0.0518     74.8982
#   35      0.9433     77.5746
#   36      0.0397     80.2991
#   37      0.8160     83.0764
#   38      0.0296     85.9119
#   39      0.7274     88.8117
#   40      0.0212     91.7827
#   41      0.6486     94.8330
#   42      0.0140     97.9722
#   43      0.5034    101.2113
#   44      0.0088    104.5640
#   45      0.3293    108.0465
#   46      0.0054    111.6795
#   47      0.2253    115.4888
#   48      0.0032    119.5085
#   49      0.1737    123.7841
#   50      0.0018    128.3800
#   51      0.1232    133.3916
#   52      0.0009    138.9714
#   53      0.0927    145.3944
#   54      0.0003    153.2622
#   55      0.1171    164.6583
   0    1.08190E+02    1.0000000000000000
   1    8.85391E+01    0.8183688704963764
   2    6.94972E+01    0.6423643810317391
   3    5.57770E+01    0.5155481773539946
   4    4.59347E+01    0.4245750770611190
   5    3.75989E+01    0.3475277301504022
   6    3.17394E+01    0.2933676942681329
   7    2.73205E+01    0.2525238627572832
   8    2.40330E+01    0.2221375309777218
   9    2.10758E+01    0.1948044904175406
  10    1.90120E+01    0.1757284325316606
  11    1.71868E+01    0.1588583656700218
  12    1.57331E+01    0.1454217763060140
  13    1.43584E+01    0.1327147224605920
  14    1.34487E+01    0.1243068311055149
  15    1.24774E+01    0.1153284728363838
  16    1.17836E+01    0.1089158947941296
  17    1.10217E+01    0.1018734012482553
  18    1.05270E+01    0.0973016715340719
  19    9.88986E+00    0.0914121905309081
  20    9.51901E+00    0.0879844529983210
  21    8.95735E+00    0.0827929992333809
  22    8.66176E+00    0.0800608194366502
  23    8.13193E+00    0.0751636042648756
  24    7.94033E+00    0.0733926487012644
  25    7.47319E+00    0.0690748742498322
  26    7.36192E+00    0.0680464146100717
  27    6.91128E+00    0.0638811447728295
  28    6.85336E+00    0.0633457490545308
  29    6.42186E+00    0.0593574018656633
  30    6.45275E+00    0.0596429038704583
  31    6.00025E+00    0.0554604298104170
  32    6.15518E+00    0.0568924880744786
  33    5.59963E+00    0.0517575010937746
  34    5.91156E+00    0.0546407167824800
  35    5.23899E+00    0.0484241138743312
  36    5.69435E+00    0.0526330164824851
  37    4.94886E+00    0.0457424678285247
  38    5.51521E+00    0.0509771785184804
  39    4.68193E+00    0.0432752218215054
  40    5.32352E+00    0.0492054370566268
  41    4.41091E+00    0.0407701608406629
  42    5.21471E+00    0.0481996453688529
  43    4.07955E+00    0.0377074110755401
  44    5.12343E+00    0.0473559708937211
  45    3.65357E+00    0.0337700568349907
  46    5.21003E+00    0.0481563937040137
  47    3.03282E+00    0.0280324615553666
  48    6.42558E+00    0.0593918086765503
