  # July 4, 2014 09:19:42
 # jmin,jmax    0   50
 # Eau     0.00200000
 # r0,ra,rb,rdel,tol,Bau,mu   3.5000  25.0000  25.0000   4.0000  1.0000E-03  3.0130E-07  6.8548E+03
 # parity bigJ  0  0        1  0        1  1        2  0        2  1        2  2        3  0        3  1        3  2        3  3
 # jmin,jmax,maxlamb are            0          50         100
 # j and jp are          29          32
 # lam  B-lambda(j,jp)  angle
#    3    343.5852      3.2046
#    4      4.6273      6.1402
#    5    108.3004      8.4881
#    6      3.0839     10.6462
#    7     57.5052     12.7132
#    8      2.1650     14.7294
#    9     35.6260     16.7149
#   10      1.6387     18.6813
#   11     23.6354     20.6360
#   12      1.2626     22.5838
#   13     16.1419     24.5284
#   14      1.0164     26.4723
#   15     11.5769     28.4179
#   16      0.7908     30.3667
#   17      8.3074     32.3204
#   18      0.5711     34.2803
#   19      6.2377     36.2476
#   20      0.4138     38.2235
#   21      4.6562     40.2090
#   22      0.3224     42.2054
#   23      3.4730     44.2135
#   24      0.2516     46.2346
#   25      2.7146     48.2698
#   26      0.1909     50.3201
#   27      2.1031     52.3867
#   28      0.1484     54.4709
#   29      1.6987     56.5739
#   30      0.1172     58.6971
#   31      1.3967     60.8420
#   32      0.0920     63.0100
#   33      1.1285     65.2029
#   34      0.0716     67.4224
#   35      0.9376     69.6705
#   36      0.0548     71.9492
#   37      0.8012     74.2609
#   38      0.0409     76.6080
#   39      0.7090     78.9933
#   40      0.0291     81.4199
#   41      0.6060     83.8912
#   42      0.0192     86.4111
#   43      0.4329     88.9837
#   44      0.0122     91.6142
#   45      0.2707     94.3080
#   46      0.0078     97.0716
#   47      0.1862     99.9125
#   48      0.0048    102.8396
#   49      0.1299    105.8634
#   50      0.0028    108.9964
#   51      0.0783    112.2542
#   52      0.0016    115.6561
#   53      0.0514    119.2265
#   54      0.0008    122.9974
#   55      0.0368    127.0121
#   56      0.0003    131.3310
#   57      0.0201    136.0442
#   58      0.0001    141.2960
#   59      0.0081    147.3457
#   60      0.0000    154.7613
#   61      0.0045    165.5076
   0    1.38752E+02    1.0000000000000000
   1    1.23206E+02    0.8879567674510289
   2    1.03630E+02    0.7468709313511315
   3    8.77474E+01    0.6324039106848904
   4    7.56881E+01    0.5454915151081809
   5    6.57084E+01    0.4735668334196879
   6    5.73782E+01    0.4135300310552930
   7    5.08482E+01    0.3664675528499911
   8    4.58201E+01    0.3302298542789499
   9    4.16264E+01    0.3000050049008670
  10    3.80140E+01    0.2739706129374881
  11    3.49762E+01    0.2520763893139571
  12    3.24591E+01    0.2339359687068094
  13    3.02494E+01    0.2180101892127682
  14    2.82376E+01    0.2035112845789676
  15    2.64585E+01    0.1906888728629627
  16    2.49698E+01    0.1799596816630158
  17    2.36256E+01    0.1702717266489233
  18    2.23793E+01    0.1612898747492633
  19    2.12371E+01    0.1530576188067191
  20    2.02443E+01    0.1459024739700321
  21    1.93053E+01    0.1391349476818926
  22    1.84630E+01    0.1330646962149373
  23    1.76593E+01    0.1272721943426652
  24    1.69634E+01    0.1222570356134552
  25    1.62651E+01    0.1172242026774228
  26    1.56763E+01    0.1129805722191206
  27    1.50751E+01    0.1086477726668992
  28    1.45877E+01    0.1051348557495038
  29    1.40491E+01    0.1012533959046567
  30    1.36170E+01    0.0981388821361234
  31    1.31328E+01    0.0946489707491922
  32    1.27878E+01    0.0921626474026726
  33    1.23745E+01    0.0891845214486300
  34    1.21236E+01    0.0873761105174113
  35    1.17262E+01    0.0845116759765424
  36    1.15359E+01    0.0831400522370203
  37    1.11207E+01    0.0801476252264761
  38    1.09773E+01    0.0791147518573750
  39    1.05677E+01    0.0761620406916418
  40    1.04909E+01    0.0756090295049012
  41    1.00587E+01    0.0724941470344709
  42    1.01294E+01    0.0730036882526183
  43    9.58499E+00    0.0690799379183596
  44    9.86197E+00    0.0710761647531466
  45    9.20982E+00    0.0663759971027315
  46    9.65298E+00    0.0695698900658197
  47    8.87005E+00    0.0639272567237958
  48    9.39571E+00    0.0677157616037446
  49    8.53881E+00    0.0615399703171267
  50    9.27238E+00    0.0668268828526333
  51    8.27330E+00    0.0596264734258762
  52    9.29504E+00    0.0669902068413963
  53    7.98268E+00    0.0575319515201049
  54    9.48649E+00    0.0683700056482663
  55    7.66578E+00    0.0552479711236425
  56    1.02537E+01    0.0738996454084007
  57    6.86405E+00    0.0494698643807657
  58    1.33243E+01    0.0960294698404266
