  # July 4, 2014 09:19:42
 # jmin,jmax    0   50
 # Eau     0.00200000
 # r0,ra,rb,rdel,tol,Bau,mu   3.5000  25.0000  25.0000   4.0000  1.0000E-03  3.0130E-07  6.8548E+03
 # parity bigJ  0  0        1  0        1  1        2  0        2  1        2  2        3  0        3  1        3  2        3  3
 # jmin,jmax,maxlamb are            0          50         100
 # j and jp are          14          44
 # lam  B-lambda(j,jp)  angle
#   30      3.6563     12.3100
#   31      0.0478     21.7308
#   32      1.6348     28.4411
#   33      0.0463     34.0928
#   34      1.0809     39.1584
#   35      0.0370     43.8525
#   36      0.7488     48.2949
#   37      0.0270     52.5610
#   38      0.5493     56.7025
#   39      0.0185     60.7577
#   40      0.4207     64.7561
#   41      0.0123     68.7223
#   42      0.3479     72.6772
#   43      0.0083     76.6399
#   44      0.2710     80.6285
#   45      0.0058     84.6610
#   46      0.1734     88.7559
#   47      0.0039     92.9335
#   48      0.1192     97.2163
#   49      0.0022    101.6308
#   50      0.1033    106.2092
#   51      0.0010    110.9919
#   52      0.0757    116.0323
#   53      0.0004    121.4041
#   54      0.0412    127.2155
#   55      0.0001    133.6387
#   56      0.0221    140.9826
#   57      0.0000    149.9227
#   58      0.0188    162.8036
   0    1.29739E+01    1.0000000000000000
   1    8.88573E+00    0.6848939432990474
   2    5.36498E+00    0.4135214438673711
   3    3.53675E+00    0.2726051485820770
   4    2.67530E+00    0.2062069054484822
   5    2.11914E+00    0.1633391243214415
   6    1.79104E+00    0.1380500302684466
   7    1.47970E+00    0.1140520158372922
   8    1.33899E+00    0.1032064097021810
   9    1.23821E+00    0.0954384805555199
  10    1.13587E+00    0.0875501731481595
  11    9.78109E-01    0.0753906604716391
  12    9.19820E-01    0.0708978555340309
  13    8.41894E-01    0.0648915082486111
  14    8.01581E-01    0.0617842395215880
  15    7.12397E-01    0.0549101068762076
  16    6.97451E-01    0.0537580850521887
  17    6.27060E-01    0.0483324929734384
  18    6.37678E-01    0.0491509095915327
  19    5.54341E-01    0.0427274393497248
  20    5.91382E-01    0.0455824999001302
  21    4.80372E-01    0.0370261335705894
  22    5.54921E-01    0.0427721759755448
  23    4.08661E-01    0.0314987839276792
  24    5.14916E-01    0.0396886646325679
  25    3.65133E-01    0.0281437118996337
  26    4.90665E-01    0.0378194576491460
  27    2.54091E-01    0.0195848533213012
  28    6.55029E-01    0.0504882773013849
