  # July 4, 2014 09:19:42
 # jmin,jmax    0   50
 # Eau     0.00200000
 # r0,ra,rb,rdel,tol,Bau,mu   3.5000  25.0000  25.0000   4.0000  1.0000E-03  3.0130E-07  6.8548E+03
 # parity bigJ  0  0        1  0        1  1        2  0        2  1        2  2        3  0        3  1        3  2        3  3
 # jmin,jmax,maxlamb are            0          50         100
 # j and jp are          26          32
 # lam  B-lambda(j,jp)  angle
#    6    253.6501      4.7802
#    7     10.9569      8.7387
#    8     63.8836     11.7346
#    9      5.0402     14.3853
#   10     26.9914     16.8568
#   11      2.4100     19.2209
#   12     13.9018     21.5154
#   13      1.4113     23.7630
#   14      8.1643     25.9783
#   15      0.8982     28.1715
#   16      5.2232     30.3500
#   17      0.5867     32.5193
#   18      3.4911     34.6838
#   19      0.3813     36.8472
#   20      2.5859     39.0125
#   21      0.2367     41.1823
#   22      1.9552     43.3590
#   23      0.1492     45.5447
#   24      1.5028     47.7414
#   25      0.1052     49.9511
#   26      1.2680     52.1756
#   27      0.0840     54.4168
#   28      1.0792     56.6766
#   29      0.0709     58.9569
#   30      0.8688     61.2598
#   31      0.0590     63.5873
#   32      0.7378     65.9416
#   33      0.0474     68.3251
#   34      0.6550     70.7403
#   35      0.0374     73.1899
#   36      0.5002     75.6770
#   37      0.0295     78.2048
#   38      0.3690     80.7769
#   39      0.0231     83.3973
#   40      0.3090     86.0707
#   41      0.0177     88.8021
#   42      0.2731     91.5973
#   43      0.0130     94.4631
#   44      0.2323     97.4072
#   45      0.0091    100.4388
#   46      0.1771    103.5688
#   47      0.0061    106.8101
#   48      0.1329    110.1787
#   49      0.0038    113.6946
#   50      0.1194    117.3828
#   51      0.0021    121.2764
#   52      0.1039    125.4198
#   53      0.0009    129.8753
#   54      0.0683    134.7357
#   55      0.0003    140.1493
#   56      0.0383    146.3831
#   57      0.0001    154.0217
#   58      0.0328    165.0884
   0    1.20064E+02    1.0000000000000000
   1    1.09271E+02    0.9101069280258983
   2    9.76728E+01    0.8135079463127954
   3    8.80141E+01    0.7330619802394632
   4    7.96604E+01    0.6634846128783207
   5    7.20841E+01    0.6003821941574961
   6    6.51953E+01    0.5430059407996493
   7    5.88084E+01    0.4898099715551161
   8    5.32244E+01    0.4433009732100721
   9    4.82330E+01    0.4017282515023773
  10    4.39445E+01    0.3660099303398042
  11    4.00960E+01    0.3339564039528036
  12    3.66475E+01    0.3052335162370213
  13    3.35342E+01    0.2793032894286557
  14    3.08859E+01    0.2572456786473058
  15    2.84451E+01    0.2369165773354823
  16    2.63011E+01    0.2190591284458291
  17    2.43322E+01    0.2026604401716241
  18    2.26761E+01    0.1888674246833121
  19    2.11140E+01    0.1758568605925619
  20    1.97775E+01    0.1647248605011715
  21    1.84410E+01    0.1535932480565564
  22    1.73598E+01    0.1445886458483373
  23    1.62729E+01    0.1355358632065723
  24    1.54445E+01    0.1286359015582191
  25    1.44975E+01    0.1207484565446264
  26    1.37889E+01    0.1148463880843992
  27    1.29262E+01    0.1076610598243018
  28    1.23329E+01    0.1027198040146287
  29    1.15662E+01    0.0963340582633960
  30    1.10629E+01    0.0921421524870415
  31    1.03746E+01    0.0864091480423352
  32    9.95257E+00    0.0828941141276074
  33    9.31606E+00    0.0775926222133011
  34    8.96742E+00    0.0746888106427778
  35    8.33958E+00    0.0694596062390795
  36    8.06755E+00    0.0671939159531836
  37    7.44169E+00    0.0619811371128717
  38    7.24500E+00    0.0603429221924850
  39    6.60645E+00    0.0550245073157058
  40    6.48742E+00    0.0540331833102460
  41    5.86769E+00    0.0488714829002295
  42    5.77649E+00    0.0481118387568355
  43    5.14487E+00    0.0428511759930998
  44    5.17465E+00    0.0430991600950455
  45    4.36706E+00    0.0363728428214685
  46    4.55210E+00    0.0379140310894896
  47    3.65474E+00    0.0304400318961068
  48    4.04294E+00    0.0336732910745582
  49    2.91627E+00    0.0242893480061648
  50    3.58269E+00    0.0298399160945562
  51    2.06309E+00    0.0171833301426686
  52    3.54445E+00    0.0295213836112947
