  # July 4, 2014 09:19:42
 # jmin,jmax    0   50
 # Eau     0.00200000
 # r0,ra,rb,rdel,tol,Bau,mu   3.5000  25.0000  25.0000   4.0000  1.0000E-03  3.0130E-07  6.8548E+03
 # parity bigJ  0  0        1  0        1  1        2  0        2  1        2  2        3  0        3  1        3  2        3  3
 # jmin,jmax,maxlamb are            0          50         100
 # j and jp are          17          43
 # lam  B-lambda(j,jp)  angle
#   26      7.0414     10.5609
#   27      0.1183     18.6346
#   28      3.0594     24.3871
#   29      0.0939     29.2304
#   30      1.8035     33.5674
#   31      0.0627     37.5808
#   32      1.2154     41.3717
#   33      0.0407     45.0032
#   34      0.8424     48.5181
#   35      0.0284     51.9474
#   36      0.5620     55.3145
#   37      0.0218     58.6380
#   38      0.4223     61.9331
#   39      0.0173     65.2130
#   40      0.3481     68.4892
#   41      0.0131     71.7724
#   42      0.2932     75.0727
#   43      0.0093     78.3998
#   44      0.2318     81.7638
#   45      0.0065     85.1750
#   46      0.1614     88.6445
#   47      0.0045     92.1843
#   48      0.1227     95.8081
#   49      0.0028     99.5318
#   50      0.1062    103.3741
#   51      0.0014    107.3576
#   52      0.0745    111.5108
#   53      0.0006    115.8701
#   54      0.0384    120.4842
#   55      0.0002    125.4214
#   56      0.0186    130.7820
#   57      0.0001    136.7270
#   58      0.0106    143.5449
#   59      0.0000    151.8679
#   60      0.0074    163.8874
   0    1.85403E+01    1.0000000000000000
   1    1.41549E+01    0.7634653504289864
   2    9.72918E+00    0.5247580088893811
   3    6.99971E+00    0.3775398179672214
   4    5.28610E+00    0.2851136876485132
   5    4.03711E+00    0.2177474581964280
   6    3.24808E+00    0.1751899166697926
   7    2.72405E+00    0.1469255284821159
   8    2.39095E+00    0.1289597022731156
   9    2.16972E+00    0.1170270270174069
  10    1.97355E+00    0.1064465497377344
  11    1.74369E+00    0.0940483550719526
  12    1.59820E+00    0.0862013656778400
  13    1.49642E+00    0.0807118798137678
  14    1.42034E+00    0.0766080983304473
  15    1.32289E+00    0.0713518024085483
  16    1.26112E+00    0.0680206353021207
  17    1.17435E+00    0.0633404337916078
  18    1.11152E+00    0.0599512624042345
  19    1.02273E+00    0.0551622414879283
  20    9.80279E-01    0.0528728070832351
  21    9.03820E-01    0.0487488818685410
  22    8.77816E-01    0.0473463225183081
  23    7.91570E-01    0.0426945118345805
  24    7.84990E-01    0.0423396334233209
  25    6.78050E-01    0.0365716467663831
  26    7.11956E-01    0.0384004425298559
  27    5.77915E-01    0.0311707179287764
  28    6.61200E-01    0.0356628466036678
  29    5.12573E-01    0.0276463842899996
  30    6.10667E-01    0.0329372411899315
  31    4.27973E-01    0.0230833547596347
  32    5.78286E-01    0.0311907532452910
  33    2.63257E-01    0.0141991790482293
  34    6.53506E-01    0.0352478342780585
