  # July 4, 2014 09:19:42
 # jmin,jmax    0   50
 # Eau     0.00200000
 # r0,ra,rb,rdel,tol,Bau,mu   3.5000  25.0000  25.0000   4.0000  1.0000E-03  3.0130E-07  6.8548E+03
 # parity bigJ  0  0        1  0        1  1        2  0        2  1        2  2        3  0        3  1        3  2        3  3
 # jmin,jmax,maxlamb are            0          50         100
 # j and jp are          22          25
 # lam  B-lambda(j,jp)  angle
#    3    281.1469      4.1422
#    4      1.7095      7.9400
#    5     86.8159     10.9797
#    6      1.1243     13.7764
#    7     46.7979     16.4582
#    8      0.7986     19.0775
#    9     28.8256     21.6610
#   10      0.6096     24.2241
#   11     19.3500     26.7770
#   12      0.4621     29.3265
#   13     13.4890     31.8780
#   14      0.3492     34.4355
#   15      9.6324     37.0026
#   16      0.2762     39.5824
#   17      7.0345     42.1777
#   18      0.2241     44.7911
#   19      5.2393     47.4254
#   20      0.1811     50.0831
#   21      4.0032     52.7669
#   22      0.1436     55.4797
#   23      3.0685     58.2245
#   24      0.1126     61.0043
#   25      2.4364     63.8226
#   26      0.0887     66.6831
#   27      1.9449     69.5899
#   28      0.0696     72.5476
#   29      1.5791     75.5611
#   30      0.0544     78.6363
#   31      1.3409     81.7796
#   32      0.0421     84.9984
#   33      1.1345     88.3014
#   34      0.0322     91.6986
#   35      0.9769     95.2022
#   36      0.0242     98.8266
#   37      0.8796    102.5893
#   38      0.0175    106.5123
#   39      0.8206    110.6234
#   40      0.0121    114.9591
#   41      0.7955    119.5684
#   42      0.0076    124.5203
#   43      0.7389    129.9169
#   44      0.0042    135.9224
#   45      0.6261    142.8317
#   46      0.0019    151.2913
#   47      0.7357    163.5418
   0    1.48764E+02    1.0000000000000000
   1    1.15367E+02    0.7755010455010655
   2    9.53400E+01    0.6408797120792014
   3    7.74082E+01    0.5203413329405239
   4    6.54247E+01    0.4397878306889043
   5    5.51067E+01    0.3704295191283743
   6    4.88493E+01    0.3283670395747385
   7    4.23636E+01    0.2847696998487900
   8    3.87550E+01    0.2605127562619610
   9    3.44439E+01    0.2315332124766401
  10    3.20726E+01    0.2155932956137104
  11    2.89361E+01    0.1945094211228025
  12    2.73818E+01    0.1840617610390602
  13    2.48851E+01    0.1672787108161587
  14    2.38412E+01    0.1602616813301273
  15    2.17473E+01    0.1461864730743718
  16    2.11065E+01    0.1418787442642954
  17    1.92809E+01    0.1296069289024755
  18    1.89240E+01    0.1272080442181770
  19    1.72808E+01    0.1161620141539185
  20    1.71876E+01    0.1155355942295340
  21    1.56715E+01    0.1053442598715548
  22    1.57251E+01    0.1057045965863511
  23    1.42978E+01    0.0961102067017940
  24    1.44857E+01    0.0973734540492033
  25    1.31531E+01    0.0884155215395802
  26    1.34345E+01    0.0903071292027445
  27    1.21428E+01    0.0816243157952252
  28    1.25155E+01    0.0841294997574849
  29    1.12644E+01    0.0757194341238721
  30    1.17534E+01    0.0790065359722529
  31    1.05257E+01    0.0707542227994415
  32    1.11633E+01    0.0750398546239762
  33    9.86241E+00    0.0662955075765411
  34    1.07182E+01    0.0720483445387208
  35    9.34438E+00    0.0628133173997289
  36    1.04517E+01    0.0702568288262029
  37    8.87754E+00    0.0596752008420734
  38    1.03791E+01    0.0697685552950409
  39    8.43149E+00    0.0566768340002231
  40    1.05921E+01    0.0712007703034977
  41    7.87394E+00    0.0529289457109558
  42    1.14194E+01    0.0767618750702403
  43    6.91389E+00    0.0464754774677171
  44    1.53564E+01    0.1032266285977249
