  # July 4, 2014 09:19:42
 # jmin,jmax    0   50
 # Eau     0.00200000
 # r0,ra,rb,rdel,tol,Bau,mu   3.5000  25.0000  25.0000   4.0000  1.0000E-03  3.0130E-07  6.8548E+03
 # parity bigJ  0  0        1  0        1  1        2  0        2  1        2  2        3  0        3  1        3  2        3  3
 # jmin,jmax,maxlamb are            0          50         100
 # j and jp are          22          47
 # lam  B-lambda(j,jp)  angle
#   25     13.5619      8.7472
#   26      0.3394     15.4132
#   27      5.7158     20.1551
#   28      0.2937     24.1389
#   29      3.6705     27.6975
#   30      0.1898     30.9813
#   31      2.5895     34.0734
#   32      0.1375     37.0253
#   33      2.0205     39.8716
#   34      0.0956     42.6369
#   35      1.5811     45.3397
#   36      0.0628     47.9940
#   37      1.1646     50.6113
#   38      0.0391     53.2009
#   39      0.8350     55.7705
#   40      0.0219     58.3270
#   41      0.5848     60.8763
#   42      0.0114     63.4239
#   43      0.4138     65.9747
#   44      0.0066     68.5334
#   45      0.2900     71.1047
#   46      0.0043     73.6928
#   47      0.1720     76.3024
#   48      0.0028     78.9380
#   49      0.0870     81.6043
#   50      0.0017     84.3062
#   51      0.0505     87.0492
#   52      0.0010     89.8391
#   53      0.0318     92.6823
#   54      0.0004     95.5860
#   55      0.0150     98.5584
#   56      0.0001    101.6089
#   57      0.0051    104.7487
#   58      0.0000    107.9909
#   59      0.0017    111.3514
#   60      0.0000    114.8500
#   61      0.0007    118.5116
#   62      0.0000    122.3688
#   63      0.0002    126.4650
#   64      0.0000    130.8615
#   65      0.0001    135.6489
#   66      0.0000    140.9724
#   67      0.0000    147.0928
#   68      0.0000    154.5815
#   69      0.0000    165.4156
   0    3.07033E+01    1.0000000000000000
   1    2.59029E+01    0.8436538527696330
   2    1.90489E+01    0.6204194754593149
   3    1.31501E+01    0.4282970450224255
   4    9.42625E+00    0.3070115782166357
   5    7.43262E+00    0.2420792740882460
   6    6.29579E+00    0.2050527540016057
   7    5.47846E+00    0.1784325111208568
   8    4.80357E+00    0.1564515737175023
   9    4.24131E+00    0.1381386299011375
  10    3.77646E+00    0.1229986268538326
  11    3.38363E+00    0.1102042213563551
  12    3.05672E+00    0.0995569831621264
  13    2.81276E+00    0.0916110156857123
  14    2.64376E+00    0.0861069228032666
  15    2.49917E+00    0.0813976340034334
  16    2.34032E+00    0.0762237044015476
  17    2.17784E+00    0.0709317438134911
  18    2.03598E+00    0.0663114723729189
  19    1.91329E+00    0.0623154144857277
  20    1.79670E+00    0.0585182977285636
  21    1.68728E+00    0.0549544288041865
  22    1.59475E+00    0.0519406101703421
  23    1.51967E+00    0.0494953833529024
  24    1.45390E+00    0.0473533665426244
  25    1.39066E+00    0.0452936888218338
  26    1.32988E+00    0.0433141168387462
  27    1.27269E+00    0.0414512837313952
  28    1.22045E+00    0.0397498490698705
  29    1.17073E+00    0.0381304059216638
  30    1.12416E+00    0.0366138354255646
  31    1.07724E+00    0.0350856020785328
  32    1.03311E+00    0.0336482266183036
  33    9.88026E-01    0.0321798642541187
  34    9.47683E-01    0.0308658938120406
  35    9.08166E-01    0.0295788166402097
  36    8.81261E-01    0.0287025359323203
  37    8.47570E-01    0.0276052239608543
  38    8.54415E-01    0.0278281704187591
  39    8.08489E-01    0.0263323532954221
  40    8.27082E-01    0.0269379172246174
  41    7.78188E-01    0.0253454460751025
  42    8.36636E-01    0.0272491099505336
  43    6.40772E-01    0.0208698338643687
  44    9.64419E-01    0.0314109816043654
