  # July 4, 2014 09:19:42
 # jmin,jmax    0   50
 # Eau     0.00200000
 # r0,ra,rb,rdel,tol,Bau,mu   3.5000  25.0000  25.0000   4.0000  1.0000E-03  3.0130E-07  6.8548E+03
 # parity bigJ  0  0        1  0        1  1        2  0        2  1        2  2        3  0        3  1        3  2        3  3
 # jmin,jmax,maxlamb are            0          50         100
 # j and jp are          24          30
 # lam  B-lambda(j,jp)  angle
#    6    242.5831      5.1315
#    7      8.1961      9.3828
#    8     60.1506     12.6014
#    9      3.4842     15.4500
#   10     24.4783     18.1073
#   11      1.7506     20.6503
#   12     12.3122     23.1198
#   13      0.9725     25.5402
#   14      7.1131     27.9275
#   15      0.5377     30.2926
#   16      4.6402     32.6437
#   17      0.3167     34.9868
#   18      3.2196     37.3271
#   19      0.1966     39.6684
#   20      2.3804     42.0143
#   21      0.1320     44.3678
#   22      1.8695     46.7318
#   23      0.1005     49.1089
#   24      1.4593     51.5014
#   25      0.0829     53.9120
#   26      1.2164     56.3429
#   27      0.0689     58.7967
#   28      1.0428     61.2759
#   29      0.0568     63.7831
#   30      0.8571     66.3212
#   31      0.0469     68.8930
#   32      0.7218     71.5020
#   33      0.0380     74.1515
#   34      0.6504     76.8454
#   35      0.0299     79.5880
#   36      0.5128     82.3841
#   37      0.0233     85.2390
#   38      0.3740     88.1588
#   39      0.0181     91.1506
#   40      0.3102     94.2224
#   41      0.0137     97.3838
#   42      0.2785    100.6460
#   43      0.0100    104.0226
#   44      0.2458    107.5301
#   45      0.0069    111.1892
#   46      0.1996    115.0260
#   47      0.0045    119.0746
#   48      0.1551    123.3811
#   49      0.0027    128.0102
#   50      0.1446    133.0578
#   51      0.0014    138.6779
#   52      0.1543    145.1471
#   53      0.0005    153.0716
#   54      0.1858    164.5500
   0    1.19742E+02    1.0000000000000000
   1    1.06559E+02    0.8899084320238597
   2    9.54508E+01    0.7971392701635827
   3    8.55421E+01    0.7143881346492016
   4    7.77698E+01    0.6494797098149747
   5    7.00961E+01    0.5853938135657539
   6    6.34403E+01    0.5298091935630814
   7    5.69692E+01    0.4757669814468756
   8    5.15589E+01    0.4305843803722367
   9    4.65219E+01    0.3885183467120648
  10    4.23572E+01    0.3537378293929328
  11    3.82658E+01    0.3195696429314389
  12    3.50279E+01    0.2925283928752616
  13    3.18958E+01    0.2663719952552513
  14    2.93934E+01    0.2454731206670765
  15    2.68561E+01    0.2242834130822630
  16    2.49301E+01    0.2081991539340158
  17    2.29557E+01    0.1917101120862797
  18    2.14671E+01    0.1792782325098876
  19    1.98194E+01    0.1655180104860646
  20    1.86244E+01    0.1555385068845130
  21    1.73038E+01    0.1445096597845048
  22    1.63798E+01    0.1367931319609440
  23    1.52490E+01    0.1273492186420730
  24    1.44722E+01    0.1208619971552168
  25    1.34831E+01    0.1126019214016166
  26    1.28720E+01    0.1074978582558602
  27    1.19919E+01    0.1001481609760120
  28    1.15132E+01    0.0961504474602837
  29    1.06956E+01    0.0893222351553202
  30    1.03206E+01    0.0861902852111780
  31    9.53207E+00    0.0796052823505552
  32    9.23154E+00    0.0770954162937745
  33    8.46152E+00    0.0706647482525398
  34    8.23926E+00    0.0688085691849501
  35    7.49557E+00    0.0625978391905911
  36    7.30468E+00    0.0610036095351080
  37    6.57708E+00    0.0549271970996138
  38    6.47564E+00    0.0540800587437866
  39    5.65199E+00    0.0472015221455668
  40    5.73801E+00    0.0479199225329123
  41    4.80172E+00    0.0401006190522305
  42    4.98698E+00    0.0416478258996235
  43    3.91794E+00    0.0327199554045425
  44    4.30941E+00    0.0359892298401524
  45    3.05052E+00    0.0254758586039427
  46    3.74403E+00    0.0312675320252343
  47    2.11844E+00    0.0176917475243401
  48    3.77259E+00    0.0315060983156678
