  # July 4, 2014 09:19:42
 # jmin,jmax    0   50
 # Eau     0.00200000
 # r0,ra,rb,rdel,tol,Bau,mu   3.5000  25.0000  25.0000   4.0000  1.0000E-03  3.0130E-07  6.8548E+03
 # parity bigJ  0  0        1  0        1  1        2  0        2  1        2  2        3  0        3  1        3  2        3  3
 # jmin,jmax,maxlamb are            0          50         100
 # j and jp are          27          41
 # lam  B-lambda(j,jp)  angle
#   14     31.1232      6.3402
#   15      4.4081     11.2641
#   16     10.7543     14.8245
#   17      2.3374     17.8589
#   18      6.3321     20.6034
#   19      1.5164     23.1635
#   20      4.4277     25.5967
#   21      1.0905     27.9384
#   22      3.2854     30.2119
#   23      0.8123     32.4337
#   24      2.4799     34.6160
#   25      0.5733     36.7679
#   26      1.9958     38.8967
#   27      0.3642     41.0082
#   28      1.5706     43.1073
#   29      0.2130     45.1981
#   30      1.0946     47.2840
#   31      0.1238     49.3682
#   32      0.8371     51.4535
#   33      0.0781     53.5425
#   34      0.6731     55.6374
#   35      0.0566     57.7407
#   36      0.5024     59.8543
#   37      0.0442     61.9805
#   38      0.3936     64.1213
#   39      0.0341     66.2788
#   40      0.3347     68.4552
#   41      0.0258     70.6526
#   42      0.2827     72.8734
#   43      0.0190     75.1199
#   44      0.2107     77.3947
#   45      0.0134     79.7005
#   46      0.1462     82.0402
#   47      0.0089     84.4172
#   48      0.1209     86.8348
#   49      0.0052     89.2970
#   50      0.1005     91.8081
#   51      0.0026     94.3731
#   52      0.0610     96.9975
#   53      0.0011     99.6876
#   54      0.0274    102.4510
#   55      0.0004    105.2962
#   56      0.0122    108.2334
#   57      0.0002    111.2751
#   58      0.0056    114.4362
#   59      0.0000    117.7355
#   60      0.0019    121.1966
#   61      0.0000    124.8507
#   62      0.0004    128.7394
#   63      0.0000    132.9214
#   64      0.0001    137.4838
#   65      0.0000    142.5661
#   66      0.0000    148.4190
#   67      0.0000    155.5914
#   68      0.0000    165.9820
   0    4.35741E+01    1.0000000000000000
   1    3.78652E+01    0.8689831970035056
   2    3.00143E+01    0.6888101988048545
   3    2.32904E+01    0.5345005669628728
   4    1.84238E+01    0.4228155470789004
   5    1.48484E+01    0.3407626237982203
   6    1.22230E+01    0.2805113858952338
   7    1.04108E+01    0.2389203958662121
   8    9.13131E+00    0.2095580023725424
   9    8.10870E+00    0.1860896872027048
  10    7.22577E+00    0.1658270847884328
  11    6.43381E+00    0.1476519185140930
  12    5.70161E+00    0.1308485144562752
  13    5.05917E+00    0.1161047714648624
  14    4.54799E+00    0.1043735887283613
  15    4.13458E+00    0.0948860336524201
  16    3.76409E+00    0.0863835442540469
  17    3.44213E+00    0.0789948038348048
  18    3.18346E+00    0.0730585551301796
  19    2.95000E+00    0.0677006165218217
  20    2.70718E+00    0.0621280923317502
  21    2.47719E+00    0.0568498851566227
  22    2.29540E+00    0.0526779636350671
  23    2.16030E+00    0.0495776239257143
  24    2.04889E+00    0.0470207563207048
  25    1.94393E+00    0.0446119179335563
  26    1.83723E+00    0.0421633152330178
  27    1.72576E+00    0.0396050660091801
  28    1.61643E+00    0.0370961114572277
  29    1.51969E+00    0.0348758701847582
  30    1.44265E+00    0.0331080349650196
  31    1.37818E+00    0.0316283596161523
  32    1.32192E+00    0.0303372195343804
  33    1.26126E+00    0.0289451028885328
  34    1.20699E+00    0.0276995873710604
  35    1.14638E+00    0.0263087078399390
  36    1.10281E+00    0.0253088273815253
  37    1.05091E+00    0.0241176383590712
  38    1.01965E+00    0.0234002937365269
  39    9.72429E-01    0.0223166512260842
  40    9.55278E-01    0.0219230432919991
  41    8.92203E-01    0.0204755051681048
  42    9.11030E-01    0.0209075840243760
  43    8.10595E-01    0.0186026516925647
  44    8.79071E-01    0.0201741522302927
  45    7.73375E-01    0.0177484867591367
  46    8.65764E-01    0.0198687597202491
  47    7.34409E-01    0.0168542285723330
  48    8.30560E-01    0.0190608539640864
  49    6.02336E-01    0.0138232405821009
  50    8.25553E-01    0.0189459340509702
  51    5.68141E-01    0.0130384901112692
  52    9.23054E-01    0.0211835360337195
  53    5.29331E-01    0.0121478311259234
  54    1.23911E+00    0.0284367537791443
