  # July 4, 2014 09:19:42
 # jmin,jmax    0   50
 # Eau     0.00200000
 # r0,ra,rb,rdel,tol,Bau,mu   3.5000  25.0000  25.0000   4.0000  1.0000E-03  3.0130E-07  6.8548E+03
 # parity bigJ  0  0        1  0        1  1        2  0        2  1        2  2        3  0        3  1        3  2        3  3
 # jmin,jmax,maxlamb are            0          50         100
 # j and jp are          28          30
 # lam  B-lambda(j,jp)  angle
#    2   3117.8355      2.7482
#    3     83.9475      5.4991
#    4    376.7779      7.7802
#    5     27.8046      9.9228
#    6    116.7699     12.0031
#    7      9.7753     14.0507
#    8     46.3668     16.0801
#    9      4.1697     18.0995
#   10     22.3249     20.1139
#   11      2.1480     22.1268
#   12     12.2806     24.1407
#   13      1.2953     26.1577
#   14      7.3628     28.1794
#   15      0.8426     30.2071
#   16      4.7716     32.2422
#   17      0.5320     34.2858
#   18      3.1930     36.3391
#   19      0.3194     38.4031
#   20      2.4014     40.4789
#   21      0.1946     42.5676
#   22      1.8791     44.6704
#   23      0.1323     46.7883
#   24      1.4686     48.9226
#   25      0.1033     51.0745
#   26      1.2433     53.2454
#   27      0.0872     55.4365
#   28      1.0596     57.6494
#   29      0.0732     59.8857
#   30      0.8575     62.1470
#   31      0.0599     64.4353
#   32      0.7325     66.7523
#   33      0.0485     69.1004
#   34      0.6528     71.4818
#   35      0.0384     73.8991
#   36      0.4998     76.3551
#   37      0.0302     78.8531
#   38      0.3684     81.3964
#   39      0.0236     83.9891
#   40      0.3083     86.6355
#   41      0.0181     89.3407
#   42      0.2728     92.1103
#   43      0.0133     94.9511
#   44      0.2327     97.8708
#   45      0.0093    100.8783
#   46      0.1780    103.9844
#   47      0.0062    107.2021
#   48      0.1335    110.5472
#   49      0.0039    114.0394
#   50      0.1196    117.7039
#   51      0.0021    121.5734
#   52      0.1047    125.6921
#   53      0.0009    130.1222
#   54      0.0694    134.9557
#   55      0.0003    140.3405
#   56      0.0391    146.5423
#   57      0.0001    154.1430
#   58      0.0334    165.1565
   0    4.16992E+02    1.0000000000000000
   1    4.04464E+02    0.9699560195204471
   2    3.89728E+02    0.9346181282220841
   3    3.75750E+02    0.9010958807438415
   4    3.62056E+02    0.8682567632039623
   5    3.48282E+02    0.8352233934331549
   6    3.34518E+02    0.8022171257573832
   7    3.20777E+02    0.7692636163035262
   8    3.07533E+02    0.7375019542381002
   9    2.94708E+02    0.7067470522518481
  10    2.82518E+02    0.6775129245954437
  11    2.70767E+02    0.6493323558136714
  12    2.59485E+02    0.6222768435872487
  13    2.48654E+02    0.5963038532386050
  14    2.38418E+02    0.5717573327687772
  15    2.28534E+02    0.5480535291306214
  16    2.19123E+02    0.5254858060898500
  17    2.10087E+02    0.5038154007124812
  18    2.01572E+02    0.4833953607159556
  19    1.93361E+02    0.4637045729039197
  20    1.85591E+02    0.4450704788905065
  21    1.78039E+02    0.4269603951658268
  22    1.70952E+02    0.4099650702774412
  23    1.64048E+02    0.3934074168053386
  24    1.57570E+02    0.3778717854600371
  25    1.51140E+02    0.3624528475095140
  26    1.45118E+02    0.3480109152339905
  27    1.39113E+02    0.3336104159301670
  28    1.33534E+02    0.3202324818538065
  29    1.27929E+02    0.3067892772856556
  30    1.22716E+02    0.2942887826636978
  31    1.17439E+02    0.2816339793570006
  32    1.12533E+02    0.2698691842233347
  33    1.07520E+02    0.2578458262529575
  34    1.02888E+02    0.2467374675654196
  35    9.80889E+01    0.2352296304552201
  36    9.37346E+01    0.2247874182543063
  37    8.91364E+01    0.2137604030691425
  38    8.50434E+01    0.2039448013728221
  39    8.06178E+01    0.1933315493752264
  40    7.67734E+01    0.1841123688696640
  41    7.25175E+01    0.1739062042636527
  42    6.88556E+01    0.1651244331926431
  43    6.47624E+01    0.1553083478147460
  44    6.13357E+01    0.1470907727287319
  45    5.72733E+01    0.1373486975723982
  46    5.41826E+01    0.1299366629326167
  47    5.01610E+01    0.1202924152649824
  48    4.72880E+01    0.1134025271073304
  49    4.31796E+01    0.1035500671992811
  50    4.05540E+01    0.0972535287748901
  51    3.62666E+01    0.0869719488347127
  52    3.38579E+01    0.0811954495580951
  53    2.90139E+01    0.0695791039229289
  54    2.68421E+01    0.0643708158399416
  55    2.07504E+01    0.0497620368083424
  56    1.99113E+01    0.0477499127996679
