  # July 4, 2014 09:19:42
 # jmin,jmax    0   50
 # Eau     0.00200000
 # r0,ra,rb,rdel,tol,Bau,mu   3.5000  25.0000  25.0000   4.0000  1.0000E-03  3.0130E-07  6.8548E+03
 # parity bigJ  0  0        1  0        1  1        2  0        2  1        2  2        3  0        3  1        3  2        3  3
 # jmin,jmax,maxlamb are            0          50         100
 # j and jp are          22          43
 # lam  B-lambda(j,jp)  angle
#   21     20.3951      8.3788
#   22      1.0152     14.7959
#   23      8.4334     19.3806
#   24      0.6437     23.2478
#   25      5.1341     26.7148
#   26      0.4622     29.9246
#   27      3.4865     32.9561
#   28      0.3158     35.8580
#   29      2.4493     38.6632
#   30      0.2110     41.3948
#   31      1.6648     44.0702
#   32      0.1426     46.7028
#   33      1.2690     49.3032
#   34      0.0959     51.8803
#   35      1.0740     54.4414
#   36      0.0625     56.9929
#   37      0.8913     59.5406
#   38      0.0389     62.0896
#   39      0.7579     64.6446
#   40      0.0238     67.2103
#   41      0.5950     69.7909
#   42      0.0154     72.3909
#   43      0.3795     75.0145
#   44      0.0105     77.6663
#   45      0.2321     80.3509
#   46      0.0069     83.0733
#   47      0.1562     85.8387
#   48      0.0041     88.6530
#   49      0.0934     91.5227
#   50      0.0024     94.4549
#   51      0.0529     97.4579
#   52      0.0013    100.5413
#   53      0.0361    103.7161
#   54      0.0006    106.9958
#   55      0.0217    110.3964
#   56      0.0002    113.9379
#   57      0.0088    117.6457
#   58      0.0001    121.5525
#   59      0.0028    125.7027
#   60      0.0000    130.1583
#   61      0.0011    135.0113
#   62      0.0000    140.4088
#   63      0.0005    146.6158
#   64      0.0000    154.2120
#   65      0.0002    165.2041
   0    4.10261E+01    1.0000000000000000
   1    3.42786E+01    0.8355313871145860
   2    2.53549E+01    0.6180192161053157
   3    1.83565E+01    0.4474358999054021
   4    1.40594E+01    0.3426947807628604
   5    1.13418E+01    0.2764532908823733
   6    9.25273E+00    0.2255329066326559
   7    7.54380E+00    0.1838782745001848
   8    6.31622E+00    0.1539563496590391
   9    5.57960E+00    0.1360012381991038
  10    5.12111E+00    0.1248257037348058
  11    4.71117E+00    0.1148335458364166
  12    4.28126E+00    0.1043547028557412
  13    3.86780E+00    0.0942766678686978
  14    3.52557E+00    0.0859347953082510
  15    3.26776E+00    0.0796508036026321
  16    3.05570E+00    0.0744818859338631
  17    2.85388E+00    0.0695625780566124
  18    2.68334E+00    0.0654056326455762
  19    2.55641E+00    0.0623118608047524
  20    2.44272E+00    0.0595407469228917
  21    2.30642E+00    0.0562183785489525
  22    2.16342E+00    0.0527327974686483
  23    2.03864E+00    0.0496912274572929
  24    1.94356E+00    0.0473738817295180
  25    1.85950E+00    0.0453247937859434
  26    1.78135E+00    0.0434199369564054
  27    1.69866E+00    0.0414045278911143
  28    1.62413E+00    0.0395877752496905
  29    1.54308E+00    0.0376122441146567
  30    1.47956E+00    0.0360638269181304
  31    1.39615E+00    0.0340307717565804
  32    1.34947E+00    0.0328928691218485
  33    1.26110E+00    0.0307390127624163
  34    1.23542E+00    0.0301131671406696
  35    1.15320E+00    0.0281090187678484
  36    1.14444E+00    0.0278954297249366
  37    1.06409E+00    0.0259368473010367
  38    1.09539E+00    0.0266997794581593
  39    9.26061E-01    0.0225725129273203
  40    9.73275E-01    0.0237233333406747
  41    7.60835E-01    0.0185451577136046
  42    9.54084E-01    0.0232555605580489
  43    4.63702E-01    0.0113026181676896
  44    1.35179E+00    0.0329495670908395
