  # July 4, 2014 09:19:42
 # jmin,jmax    0   50
 # Eau     0.00200000
 # r0,ra,rb,rdel,tol,Bau,mu   3.5000  25.0000  25.0000   4.0000  1.0000E-03  3.0130E-07  6.8548E+03
 # parity bigJ  0  0        1  0        1  1        2  0        2  1        2  2        3  0        3  1        3  2        3  3
 # jmin,jmax,maxlamb are            0          50         100
 # j and jp are          21          43
 # lam  B-lambda(j,jp)  angle
#   22      9.9978      8.7718
#   23      0.5217     15.4844
#   24      4.2059     20.2762
#   25      0.3662     24.3153
#   26      2.9428     27.9345
#   27      0.2554     31.2839
#   28      2.1462     34.4464
#   29      0.1635     37.4732
#   30      1.5115     40.3990
#   31      0.0983     43.2482
#   32      1.1430     46.0392
#   33      0.0603     48.7863
#   34      0.8178     51.5009
#   35      0.0415     54.1923
#   36      0.5491     56.8685
#   37      0.0319     59.5367
#   38      0.4172     62.2029
#   39      0.0251     64.8729
#   40      0.3440     67.5520
#   41      0.0189     70.2455
#   42      0.2874     72.9583
#   43      0.0133     75.6955
#   44      0.2225     78.4622
#   45      0.0092     81.2640
#   46      0.1552     84.1064
#   47      0.0063     86.9957
#   48      0.1221     89.9387
#   49      0.0039     92.9429
#   50      0.1022     96.0168
#   51      0.0019     99.1703
#   52      0.0655    102.4148
#   53      0.0008    105.7641
#   54      0.0309    109.2345
#   55      0.0003    112.8464
#   56      0.0140    116.6257
#   57      0.0001    120.6056
#   58      0.0068    124.8313
#   59      0.0000    129.3658
#   60      0.0027    134.3023
#   61      0.0000    139.7905
#   62      0.0007    146.0991
#   63      0.0000    153.8169
#   64      0.0002    164.9815
   0    2.35519E+01    1.0000000000000000
   1    1.89764E+01    0.8057273909851643
   2    1.33960E+01    0.5687859130693006
   3    9.36853E+00    0.3977817636624339
   4    6.84329E+00    0.2905617764677457
   5    5.14989E+00    0.2186611851082931
   6    4.08866E+00    0.1736018477883137
   7    3.50819E+00    0.1489556800141269
   8    3.15055E+00    0.1337705840304642
   9    2.87141E+00    0.1219181155908326
  10    2.63062E+00    0.1116945716302542
  11    2.38162E+00    0.1011220401033632
  12    2.13791E+00    0.0907744044244996
  13    1.96115E+00    0.0832693712150567
  14    1.83740E+00    0.0780149090471996
  15    1.69721E+00    0.0720625894094115
  16    1.54041E+00    0.0654047769936465
  17    1.40556E+00    0.0596791831711211
  18    1.30369E+00    0.0553540571320364
  19    1.21906E+00    0.0517604960754296
  20    1.15661E+00    0.0491089063793523
  21    1.10774E+00    0.0470340170914102
  22    1.06692E+00    0.0453009374421124
  23    1.01374E+00    0.0430426447327892
  24    9.66823E-01    0.0410507096749032
  25    9.16058E-01    0.0388952668863583
  26    8.87406E-01    0.0376787136244395
  27    8.50841E-01    0.0361261545222298
  28    8.37695E-01    0.0355679940008780
  29    8.06613E-01    0.0342482881879390
  30    8.04616E-01    0.0341634868872889
  31    7.70613E-01    0.0327197474707819
  32    7.85253E-01    0.0333413316918136
  33    7.22609E-01    0.0306815081145018
  34    7.66330E-01    0.0325378954982555
  35    6.46363E-01    0.0274441546666075
  36    7.17915E-01    0.0304822016963014
  37    5.83514E-01    0.0247756311509350
  38    6.94790E-01    0.0295003424211364
  39    5.33441E-01    0.0226495726215315
  40    7.31250E-01    0.0310484150301358
  41    3.98604E-01    0.0169244871438993
  42    7.72910E-01    0.0328172656659716
