  # July 4, 2014 09:19:42
 # jmin,jmax    0   50
 # Eau     0.00200000
 # r0,ra,rb,rdel,tol,Bau,mu   3.5000  25.0000  25.0000   4.0000  1.0000E-03  3.0130E-07  6.8548E+03
 # parity bigJ  0  0        1  0        1  1        2  0        2  1        2  2        3  0        3  1        3  2        3  3
 # jmin,jmax,maxlamb are            0          50         100
 # j and jp are          15          46
 # lam  B-lambda(j,jp)  angle
#   31      6.8209     11.8430
#   32      0.0510     20.8863
#   33      2.7280     27.3174
#   34      0.0493     32.7248
#   35      1.5637     37.5625
#   36      0.0397     42.0371
#   37      1.0449     46.2632
#   38      0.0286     50.3130
#   39      0.7809     54.2357
#   40      0.0183     58.0674
#   41      0.5398     61.8356
#   42      0.0102     65.5627
#   43      0.3607     69.2677
#   44      0.0053     72.9671
#   45      0.2853     76.6765
#   46      0.0029     80.4104
#   47      0.2124     84.1835
#   48      0.0018     88.0111
#   49      0.1185     91.9093
#   50      0.0011     95.8964
#   51      0.0620     99.9932
#   52      0.0006    104.2244
#   53      0.0409    108.6204
#   54      0.0003    113.2200
#   55      0.0244    118.0743
#   56      0.0001    123.2544
#   57      0.0103    128.8650
#   58      0.0000    135.0729
#   59      0.0038    142.1773
#   60      0.0000    150.8335
#   61      0.0025    163.3135
   0    1.91522E+01    1.0000000000000000
   1    1.50243E+01    0.7844681367069690
   2    1.02720E+01    0.5363341371515319
   3    7.12193E+00    0.3718603540569445
   4    5.41016E+00    0.2824826675674254
   5    4.34617E+00    0.2269283041559461
   6    3.58029E+00    0.1869391390333296
   7    3.02157E+00    0.1577664444636418
   8    2.63948E+00    0.1378163777563940
   9    2.31770E+00    0.1210152422006138
  10    2.03195E+00    0.1060950224040912
  11    1.83329E+00    0.0957222254171181
  12    1.72671E+00    0.0901575131563022
  13    1.61213E+00    0.0841748249950891
  14    1.47357E+00    0.0769399020256088
  15    1.33497E+00    0.0697035248277241
  16    1.23698E+00    0.0645870818771730
  17    1.14667E+00    0.0598717566388778
  18    1.07535E+00    0.0561477665301042
  19    9.87770E-01    0.0515748216573113
  20    9.29043E-01    0.0485085090988307
  21    8.41163E-01    0.0439199819074614
  22    8.01918E-01    0.0418708563924325
  23    7.06882E-01    0.0369087211430893
  24    6.92001E-01    0.0361317182354713
  25    5.95500E-01    0.0310930604795874
  26    6.11125E-01    0.0319089140509336
  27    5.35838E-01    0.0279779198335700
  28    6.27084E-01    0.0327421974154921
  29    3.85266E-01    0.0201160589524277
  30    7.05949E-01    0.0368599952203185
