  # July 4, 2014 09:19:42
 # jmin,jmax    0   50
 # Eau     0.00200000
 # r0,ra,rb,rdel,tol,Bau,mu   3.5000  25.0000  25.0000   4.0000  1.0000E-03  3.0130E-07  6.8548E+03
 # parity bigJ  0  0        1  0        1  1        2  0        2  1        2  2        3  0        3  1        3  2        3  3
 # jmin,jmax,maxlamb are            0          50         100
 # j and jp are          17          42
 # lam  B-lambda(j,jp)  angle
#   25     11.4671     10.4774
#   26      0.2165     18.4949
#   27      4.2159     24.2123
#   28      0.1962     29.0298
#   29      2.6069     33.3470
#   30      0.1558     37.3446
#   31      1.9118     41.1229
#   32      0.1156     44.7443
#   33      1.4269     48.2513
#   34      0.0822     51.6745
#   35      1.0991     55.0370
#   36      0.0562     58.3573
#   37      0.8654     61.6505
#   38      0.0356     64.9296
#   39      0.7281     68.2061
#   40      0.0201     71.4905
#   41      0.6136     74.7928
#   42      0.0109     78.1229
#   43      0.4332     81.4907
#   44      0.0068     84.9065
#   45      0.2681     88.3812
#   46      0.0045     91.9272
#   47      0.1773     95.5580
#   48      0.0027     99.2894
#   49      0.1138    103.1402
#   50      0.0015    107.1332
#   51      0.0669    111.2968
#   52      0.0008    115.6675
#   53      0.0463    120.2944
#   54      0.0004    125.2456
#   55      0.0328    130.6221
#   56      0.0001    136.5852
#   57      0.0179    143.4245
#   58      0.0000    151.7745
#   59      0.0103    163.8339
   0    2.93937E+01    1.0000000000000000
   1    2.22300E+01    0.7562855492632752
   2    1.46897E+01    0.4997570681115804
   3    1.01931E+01    0.3467777281412063
   4    8.08072E+00    0.2749137306802577
   5    6.76614E+00    0.2301905334292486
   6    5.63294E+00    0.1916380427783075
   7    4.72807E+00    0.1608535836957235
   8    4.16344E+00    0.1416440586120518
   9    3.72030E+00    0.1265682736343136
  10    3.31775E+00    0.1128730253756583
  11    2.89389E+00    0.0984530036891039
  12    2.57133E+00    0.0874792183049080
  13    2.33419E+00    0.0794114312573077
  14    2.17356E+00    0.0739465589563820
  15    1.96465E+00    0.0668392356309613
  16    1.81248E+00    0.0616624389790797
  17    1.65543E+00    0.0563193326514793
  18    1.57298E+00    0.0535141434459153
  19    1.42940E+00    0.0486295133167034
  20    1.35788E+00    0.0461962770072827
  21    1.22080E+00    0.0415327302762272
  22    1.18172E+00    0.0402033806086930
  23    1.06314E+00    0.0361690252861035
  24    1.05157E+00    0.0357755580289420
  25    9.44448E-01    0.0321310316870786
  26    9.64786E-01    0.0328229256650508
  27    8.45030E-01    0.0287487076055459
  28    9.19292E-01    0.0312751704822172
  29    7.45409E-01    0.0253595122874627
  30    8.78613E-01    0.0298912438939255
  31    6.68007E-01    0.0227262423708554
  32    9.39422E-01    0.0319600338951282
  33    4.28391E-01    0.0145742754686705
  34    1.28954E+00    0.0438715283323580
