  # July 4, 2014 09:19:42
 # jmin,jmax    0   50
 # Eau     0.00200000
 # r0,ra,rb,rdel,tol,Bau,mu   3.5000  25.0000  25.0000   4.0000  1.0000E-03  3.0130E-07  6.8548E+03
 # parity bigJ  0  0        1  0        1  1        2  0        2  1        2  2        3  0        3  1        3  2        3  3
 # jmin,jmax,maxlamb are            0          50         100
 # j and jp are          28          31
 # lam  B-lambda(j,jp)  angle
#    3    336.2118      3.3117
#    4      4.5821      6.3456
#    5    104.2326      8.7723
#    6      2.8588     11.0031
#    7     56.6003     13.1400
#    8      1.8070     15.2246
#    9     34.6852     17.2778
#   10      1.3807     19.3116
#   11     23.1575     21.3337
#   12      1.0221     23.3491
#   13     15.7448     25.3616
#   14      0.7768     27.3741
#   15     11.3454     29.3887
#   16      0.6080     31.4074
#   17      8.2481     33.4319
#   18      0.4580     35.4634
#   19      6.0841     37.5035
#   20      0.3468     39.5534
#   21      4.5578     41.6142
#   22      0.2705     43.6873
#   23      3.4411     45.7737
#   24      0.2151     47.8748
#   25      2.7000     49.9918
#   26      0.1722     52.1259
#   27      2.0872     54.2786
#   28      0.1371     56.4512
#   29      1.6764     58.6453
#   30      0.1081     60.8624
#   31      1.3845     63.1043
#   32      0.0845     65.3727
#   33      1.1246     67.6697
#   34      0.0655     69.9975
#   35      0.9380     72.3582
#   36      0.0501     74.7546
#   37      0.8049     77.1895
#   38      0.0375     79.6659
#   39      0.7135     82.1874
#   40      0.0267     84.7579
#   41      0.6200     87.3817
#   42      0.0177     90.0638
#   43      0.4558     92.8101
#   44      0.0112     95.6269
#   45      0.2878     98.5220
#   46      0.0071    101.5044
#   47      0.1967    104.5847
#   48      0.0043    107.7758
#   49      0.1418    111.0934
#   50      0.0025    114.5571
#   51      0.0891    118.1918
#   52      0.0014    122.0300
#   53      0.0589    126.1156
#   54      0.0007    130.5102
#   55      0.0447    135.3053
#   56      0.0002    140.6476
#   57      0.0286    146.8006
#   58      0.0001    154.3419
#   59      0.0180    165.2694
   0    1.39856E+02    1.0000000000000000
   1    1.22727E+02    0.8775226520113398
   2    1.02472E+02    0.7327015863995470
   3    8.65936E+01    0.6191643187489859
   4    7.45524E+01    0.5330666050269087
   5    6.44710E+01    0.4609823052911872
   6    5.62437E+01    0.4021556310688434
   7    4.99297E+01    0.3570091187446843
   8    4.50053E+01    0.3217982944848591
   9    4.07866E+01    0.2916336892666758
  10    3.72322E+01    0.2662184736243363
  11    3.42809E+01    0.2451165070982449
  12    3.18427E+01    0.2276824882180772
  13    2.96016E+01    0.2116580113444816
  14    2.76400E+01    0.1976325804227708
  15    2.59474E+01    0.1855298111572949
  16    2.45147E+01    0.1752860661416602
  17    2.31333E+01    0.1654081972008488
  18    2.19527E+01    0.1569670175796041
  19    2.08566E+01    0.1491294417921692
  20    1.99261E+01    0.1424763455861974
  21    1.89903E+01    0.1357852587723973
  22    1.82101E+01    0.1302063981728590
  23    1.74004E+01    0.1244166078935385
  24    1.67278E+01    0.1196079348885392
  25    1.60154E+01    0.1145136482816247
  26    1.54642E+01    0.1105725099726635
  27    1.48561E+01    0.1062246913005757
  28    1.43946E+01    0.1029245245495484
  29    1.38340E+01    0.0989165782368700
  30    1.34593E+01    0.0962373001733513
  31    1.29477E+01    0.0925787906784849
  32    1.26740E+01    0.0906222991638691
  33    1.21787E+01    0.0870802975988713
  34    1.19588E+01    0.0855083833833368
  35    1.14548E+01    0.0819043829773840
  36    1.12777E+01    0.0806379791353978
  37    1.07707E+01    0.0770129366559247
  38    1.07043E+01    0.0765379808036421
  39    1.01415E+01    0.0725137070043057
  40    1.02692E+01    0.0734268623530669
  41    9.59806E+00    0.0686283604198066
  42    9.91925E+00    0.0709249043302741
  43    9.18395E+00    0.0656673423118947
  44    9.68393E+00    0.0692422845271022
  45    8.88704E+00    0.0635443383281969
  46    9.47463E+00    0.0677458006431083
  47    8.58073E+00    0.0613541541360935
  48    9.36877E+00    0.0669888470519957
  49    8.30220E+00    0.0593626661075731
  50    9.38368E+00    0.0670954393927927
  51    8.04472E+00    0.0575215704185225
  52    9.66197E+00    0.0690852870472418
  53    7.72488E+00    0.0552346390519954
  54    1.04446E+01    0.0746812632573816
  55    6.89724E+00    0.0493168254177541
  56    1.37298E+01    0.0981715441856275
