  # July 4, 2014 09:19:42
 # jmin,jmax    0   50
 # Eau     0.00200000
 # r0,ra,rb,rdel,tol,Bau,mu   3.5000  25.0000  25.0000   4.0000  1.0000E-03  3.0130E-07  6.8548E+03
 # parity bigJ  0  0        1  0        1  1        2  0        2  1        2  2        3  0        3  1        3  2        3  3
 # jmin,jmax,maxlamb are            0          50         100
 # j and jp are          19          32
 # lam  B-lambda(j,jp)  angle
#   13     43.5291      8.1938
#   14      0.5506     14.6041
#   15     17.1350     19.2634
#   16      0.3735     23.2554
#   17     10.2470     26.8848
#   18      0.2724     30.2879
#   19      6.9108     33.5391
#   20      0.2049     36.6846
#   21      4.9539     39.7550
#   22      0.1626     42.7725
#   23      3.6225     45.7534
#   24      0.1303     48.7107
#   25      2.7496     51.6550
#   26      0.1012     54.5950
#   27      2.0966     57.5387
#   28      0.0773     60.4931
#   29      1.6665     63.4648
#   30      0.0602     66.4600
#   31      1.3835     69.4850
#   32      0.0473     72.5462
#   33      1.1349     75.6501
#   34      0.0367     78.8038
#   35      0.9526     82.0148
#   36      0.0281     85.2914
#   37      0.8304     88.6432
#   38      0.0209     92.0808
#   39      0.7470     95.6168
#   40      0.0148     99.2660
#   41      0.6826    103.0465
#   42      0.0097    106.9804
#   43      0.5590    111.0955
#   44      0.0059    115.4284
#   45      0.3881    120.0279
#   46      0.0034    124.9623
#   47      0.2806    130.3332
#   48      0.0019    136.3032
#   49      0.2528    143.1643
#   50      0.0008    151.5567
#   51      0.3086    163.6985
   0    7.41682E+01    1.0000000000000000
   1    5.32762E+01    0.7183158103072006
   2    3.89952E+01    0.5257670361178087
   3    2.94360E+01    0.3968819756220182
   4    2.34800E+01    0.3165771570470673
   5    1.81930E+01    0.2452932760838144
   6    1.55828E+01    0.2101013065609458
   7    1.30845E+01    0.1764160512658074
   8    1.15810E+01    0.1561447009374697
   9    1.00068E+01    0.1349199533768046
  10    9.29562E+00    0.1253316322522655
  11    8.08880E+00    0.1090601831266104
  12    7.62295E+00    0.1027792359126699
  13    6.77357E+00    0.0913270917007324
  14    6.52596E+00    0.0879886465143623
  15    5.82619E+00    0.0785537753218151
  16    5.70086E+00    0.0768639287742050
  17    5.08419E+00    0.0685494122158233
  18    5.04323E+00    0.0679971446739882
  19    4.51293E+00    0.0608472229588151
  20    4.55271E+00    0.0613836255724060
  21    4.02234E+00    0.0542326371584189
  22    4.12783E+00    0.0556549235469249
  23    3.57406E+00    0.0481885706751706
  24    3.81184E+00    0.0513945299715833
  25    3.18953E+00    0.0430040369978511
  26    3.57357E+00    0.0481819588711717
  27    2.84308E+00    0.0383328906894551
  28    3.35208E+00    0.0451956746841251
  29    2.53641E+00    0.0341980423757303
  30    3.13761E+00    0.0423039503167109
  31    2.26044E+00    0.0304771872379083
  32    2.97716E+00    0.0401406405397060
  33    2.03503E+00    0.0274379908283205
  34    2.87202E+00    0.0387231314909019
  35    1.74680E+00    0.0235518229874981
  36    2.90969E+00    0.0392310173945396
  37    1.40033E+00    0.0188804999338183
  38    3.48692E+00    0.0470137148457342
