  # July 4, 2014 09:19:42
 # jmin,jmax    0   50
 # Eau     0.00200000
 # r0,ra,rb,rdel,tol,Bau,mu   3.5000  25.0000  25.0000   4.0000  1.0000E-03  3.0130E-07  6.8548E+03
 # parity bigJ  0  0        1  0        1  1        2  0        2  1        2  2        3  0        3  1        3  2        3  3
 # jmin,jmax,maxlamb are            0          50         100
 # j and jp are          26          35
 # lam  B-lambda(j,jp)  angle
#    9     91.2654      5.6004
#   10      2.5805     10.0703
#   11     36.1207     13.3698
#   12      1.6135     16.2318
#   13     21.1103     18.8592
#   14      1.1285     21.3411
#   15     13.5136     23.7259
#   16      0.8192     26.0425
#   17      9.3955     28.3102
#   18      0.5891     30.5423
#   19      6.8616     32.7487
#   20      0.4359     34.9366
#   21      4.8975     37.1120
#   22      0.3282     39.2796
#   23      3.6608     41.4434
#   24      0.2427     43.6067
#   25      2.8643     45.7725
#   26      0.1822     47.9434
#   27      2.1785     50.1220
#   28      0.1403     52.3104
#   29      1.7446     54.5108
#   30      0.1092     56.7255
#   31      1.4275     58.9565
#   32      0.0855     61.2058
#   33      1.1471     63.4758
#   34      0.0671     65.7685
#   35      0.9489     68.0863
#   36      0.0522     70.4316
#   37      0.8058     72.8070
#   38      0.0392     75.2154
#   39      0.7098     77.6596
#   40      0.0276     80.1431
#   41      0.6028     82.6695
#   42      0.0182     85.2427
#   43      0.4266     87.8673
#   44      0.0116     90.5483
#   45      0.2665     93.2916
#   46      0.0074     96.1037
#   47      0.1840     98.9923
#   48      0.0045    101.9665
#   49      0.1270    105.0368
#   50      0.0026    108.2162
#   51      0.0759    111.5203
#   52      0.0015    114.9686
#   53      0.0500    118.5858
#   54      0.0007    122.4044
#   55      0.0356    126.4678
#   56      0.0003    130.8374
#   57      0.0191    135.6040
#   58      0.0001    140.9132
#   59      0.0076    147.0268
#   60      0.0000    154.5182
#   61      0.0043    165.3710
   0    9.26415E+01    1.0000000000000000
   1    7.91351E+01    0.8542085830832983
   2    6.26102E+01    0.6758329280399458
   3    4.99773E+01    0.5394704801282727
   4    4.10999E+01    0.4436447405285041
   5    3.41001E+01    0.3680868165553708
   6    2.83981E+01    0.3065371634597437
   7    2.41067E+01    0.2602153751531180
   8    2.10238E+01    0.2269367394899134
   9    1.85666E+01    0.2004136319969590
  10    1.64896E+01    0.1779941554328865
  11    1.47988E+01    0.1597427524721531
  12    1.34943E+01    0.1456611687193790
  13    1.24093E+01    0.1339497776491194
  14    1.14220E+01    0.1232922154162047
  15    1.05438E+01    0.1138124472509973
  16    9.86542E+00    0.1064903287518297
  17    9.28724E+00    0.1002492817555665
  18    8.75703E+00    0.0945260622188366
  19    8.27065E+00    0.0892759386546453
  20    7.89138E+00    0.0851819487561698
  21    7.53427E+00    0.0813272342011694
  22    7.22847E+00    0.0780262671399448
  23    6.90770E+00    0.0745638003896748
  24    6.64536E+00    0.0717320157197687
  25    6.33244E+00    0.0683542923644490
  26    6.08683E+00    0.0657031000366005
  27    5.80300E+00    0.0626393593401943
  28    5.63108E+00    0.0607835528679402
  29    5.41086E+00    0.0584064043551012
  30    5.28775E+00    0.0570776032032164
  31    5.07997E+00    0.0548347317364312
  32    4.97382E+00    0.0536889533537995
  33    4.75735E+00    0.0513522840546120
  34    4.69332E+00    0.0506611054788942
  35    4.46052E+00    0.0481482203219169
  36    4.45268E+00    0.0480636196102985
  37    4.19976E+00    0.0453334684752497
  38    4.22780E+00    0.0456361288754455
  39    3.95559E+00    0.0426978497893718
  40    4.03988E+00    0.0436076865876787
  41    3.67491E+00    0.0396681096150291
  42    3.91824E+00    0.0422946113477785
  43    3.36325E+00    0.0363039690651857
  44    3.75347E+00    0.0405160488764263
  45    3.00786E+00    0.0324677040860511
  46    3.56407E+00    0.0384716625702084
  47    2.75080E+00    0.0296930015409051
  48    3.51001E+00    0.0378880597971587
  49    2.46223E+00    0.0265780726170476
  50    3.55782E+00    0.0384041448306725
  51    1.99599E+00    0.0215453162869630
  52    4.23528E+00    0.0457168955966643
