  # July 4, 2014 09:19:42
 # jmin,jmax    0   50
 # Eau     0.00200000
 # r0,ra,rb,rdel,tol,Bau,mu   3.5000  25.0000  25.0000   4.0000  1.0000E-03  3.0130E-07  6.8548E+03
 # parity bigJ  0  0        1  0        1  1        2  0        2  1        2  2        3  0        3  1        3  2        3  3
 # jmin,jmax,maxlamb are            0          50         100
 # j and jp are          22          40
 # lam  B-lambda(j,jp)  angle
#   18     15.2071      8.0407
#   19      1.4054     14.2311
#   20      5.6988     18.6738
#   21      0.9232     22.4363
#   22      3.4194     25.8217
#   23      0.6320     28.9662
#   24      2.3366     31.9447
#   25      0.4559     34.8034
#   26      1.7719     37.5733
#   27      0.3367     40.2764
#   28      1.3610     42.9290
#   29      0.2385     45.5438
#   30      1.0069     48.1309
#   31      0.1516     50.6985
#   32      0.8158     53.2537
#   33      0.0862     55.8025
#   34      0.6902     58.3504
#   35      0.0504     60.9022
#   36      0.5206     63.4625
#   37      0.0348     66.0357
#   38      0.3900     68.6261
#   39      0.0255     71.2378
#   40      0.3271     73.8752
#   41      0.0184     76.5426
#   42      0.2854     79.2446
#   43      0.0135     81.9861
#   44      0.2243     84.7724
#   45      0.0095     87.6092
#   46      0.1557     90.5032
#   47      0.0063     93.4614
#   48      0.1211     96.4922
#   49      0.0039     99.6052
#   50      0.1080    102.8116
#   51      0.0020    106.1248
#   52      0.0775    109.5612
#   53      0.0009    113.1409
#   54      0.0400    116.8896
#   55      0.0003    120.8404
#   56      0.0185    125.0382
#   57      0.0001    129.5457
#   58      0.0096    134.4562
#   59      0.0000    139.9186
#   60      0.0045    146.2011
#   61      0.0000    153.8910
#   62      0.0021    165.0206
   0    2.98000E+01    1.0000000000000000
   1    2.39411E+01    0.8033953916905962
   2    1.73041E+01    0.5806749441293395
   3    1.27589E+01    0.4281524529427476
   4    9.82403E+00    0.3296658921866884
   5    7.76943E+00    0.2607194963630833
   6    6.40559E+00    0.2149531539720891
   7    5.44936E+00    0.1828647766405083
   8    4.70316E+00    0.1578242762854739
   9    4.11967E+00    0.1382443293029909
  10    3.63192E+00    0.1218766877074609
  11    3.19731E+00    0.1072923141538814
  12    2.87993E+00    0.0966422436210682
  13    2.62612E+00    0.0881248907399279
  14    2.37013E+00    0.0795346570206009
  15    2.14005E+00    0.0718138699872677
  16    1.99917E+00    0.0670862612461783
  17    1.88484E+00    0.0632498378741179
  18    1.76694E+00    0.0592932510230308
  19    1.62636E+00    0.0545757991650263
  20    1.50633E+00    0.0505482346733634
  21    1.38626E+00    0.0465187145014168
  22    1.30489E+00    0.0437882764774906
  23    1.22151E+00    0.0409903865575206
  24    1.16972E+00    0.0392523915825599
  25    1.09271E+00    0.0366681498177138
  26    1.04728E+00    0.0351438163038339
  27    9.69943E-01    0.0325484634564159
  28    9.44716E-01    0.0317019275680638
  29    8.64580E-01    0.0290128155267456
  30    8.68385E-01    0.0291404972041035
  31    7.65644E-01    0.0256927875935386
  32    8.05577E-01    0.0270328314513012
  33    6.75018E-01    0.0226516423461768
  34    7.45110E-01    0.0250037415537175
  35    6.03215E-01    0.0202421353335548
  36    6.81816E-01    0.0228797592347662
  37    5.33847E-01    0.0179143544404083
  38    6.55980E-01    0.0220127852289211
  39    4.75387E-01    0.0159526024474481
  40    7.06448E-01    0.0237063346423897
  41    4.04884E-01    0.0135867322824460
  42    6.87188E-01    0.0230600251642200
  43    3.05329E-01    0.0102459504478815
  44    9.51697E-01    0.0319362069294153
