  # July 4, 2014 09:19:42
 # jmin,jmax    0   50
 # Eau     0.00200000
 # r0,ra,rb,rdel,tol,Bau,mu   3.5000  25.0000  25.0000   4.0000  1.0000E-03  3.0130E-07  6.8548E+03
 # parity bigJ  0  0        1  0        1  1        2  0        2  1        2  2        3  0        3  1        3  2        3  3
 # jmin,jmax,maxlamb are            0          50         100
 # j and jp are          26          48
 # lam  B-lambda(j,jp)  angle
#   22     11.0525      7.4863
#   23      0.3715     13.2006
#   24      4.4808     17.2734
#   25      0.2205     20.7002
#   26      2.7653     23.7646
#   27      0.1730     26.5946
#   28      1.8788     29.2606
#   29      0.1449     31.8061
#   30      1.3718     34.2602
#   31      0.1188     36.6436
#   32      1.0792     38.9714
#   33      0.0967     41.2553
#   34      0.8491     43.5047
#   35      0.0765     45.7268
#   36      0.6521     47.9280
#   37      0.0574     50.1135
#   38      0.5111     52.2878
#   39      0.0403     54.4549
#   40      0.4170     56.6183
#   41      0.0251     58.7812
#   42      0.3298     60.9468
#   43      0.0137     63.1179
#   44      0.2694     65.2970
#   45      0.0077     67.4870
#   46      0.2497     69.6903
#   47      0.0051     71.9096
#   48      0.2064     74.1475
#   49      0.0030     76.4067
#   50      0.1223     78.6901
#   51      0.0014     81.0005
#   52      0.0526     83.3411
#   53      0.0006     85.7154
#   54      0.0207     88.1269
#   55      0.0003     90.5797
#   56      0.0087     93.0782
#   57      0.0001     95.6274
#   58      0.0030     98.2328
#   59      0.0000    100.9010
#   60      0.0007    103.6392
#   61      0.0000    106.4560
#   62      0.0001    109.3616
#   63      0.0000    112.3683
#   64      0.0000    115.4908
#   65      0.0000    118.7476
#   66      0.0000    122.1620
#   67      0.0000    125.7647
#   68      0.0000    129.5965
#   69      0.0000    133.7153
#   70      0.0000    138.2066
#   71      0.0000    143.2073
#   72      0.0000    148.9637
#   73      0.0000    156.0150
#   74      0.0000    166.2259
   0    2.09093E+01    1.0000000000000000
   1    1.77956E+01    0.8510834067186427
   2    1.34116E+01    0.6414149954641176
   3    9.75602E+00    0.4665869571616051
   4    7.51871E+00    0.3595866678229173
   5    6.20315E+00    0.2966691789077943
   6    5.19021E+00    0.2482248252633951
   7    4.33515E+00    0.2073309343429705
   8    3.73398E+00    0.1785798234995195
   9    3.34841E+00    0.1601395722844590
  10    3.01663E+00    0.1442719614101400
  11    2.66770E+00    0.1275844023588888
  12    2.36659E+00    0.1131835590437936
  13    2.17193E+00    0.1038735472578676
  14    2.04450E+00    0.0977794838750998
  15    1.91243E+00    0.0914630261860707
  16    1.76491E+00    0.0844079820034498
  17    1.64114E+00    0.0784884695981660
  18    1.55554E+00    0.0743945870315833
  19    1.47844E+00    0.0707071438607481
  20    1.38552E+00    0.0662632454122248
  21    1.28977E+00    0.0616837536983960
  22    1.21545E+00    0.0581296624316450
  23    1.16406E+00    0.0556719704023509
  24    1.11863E+00    0.0534988783609726
  25    1.06843E+00    0.0510983615089316
  26    1.01703E+00    0.0486401811215522
  27    9.71112E-01    0.0464439620500955
  28    9.31361E-01    0.0445428738894148
  29    8.94424E-01    0.0427763143448994
  30    8.58216E-01    0.0410446727247319
  31    8.23163E-01    0.0393682101446920
  32    7.90306E-01    0.0377968427030531
  33    7.59776E-01    0.0363367208978284
  34    7.31033E-01    0.0349620787807031
  35    7.03335E-01    0.0336374102442396
  36    6.76353E-01    0.0323469760481117
  37    6.49713E-01    0.0310728743103953
  38    6.23338E-01    0.0298114950565822
  39    5.97045E-01    0.0285540252264741
  40    5.70698E-01    0.0272939460071243
  41    5.44878E-01    0.0260590907939871
  42    5.20780E-01    0.0249066077300214
  43    4.94893E-01    0.0236685571964111
  44    4.80448E-01    0.0229776891719128
  45    4.52193E-01    0.0216263618161285
  46    4.39355E-01    0.0210123986879036
  47    4.27309E-01    0.0204362837263277
  48    4.59847E-01    0.0219924416878639
  49    3.29892E-01    0.0157772582571060
  50    5.11525E-01    0.0244639639936351
  51    2.36914E-01    0.0113305534094101
  52    6.19428E-01    0.0296245087641365
