  # July 4, 2014 09:19:42
 # jmin,jmax    0   50
 # Eau     0.00200000
 # r0,ra,rb,rdel,tol,Bau,mu   3.5000  25.0000  25.0000   4.0000  1.0000E-03  3.0130E-07  6.8548E+03
 # parity bigJ  0  0        1  0        1  1        2  0        2  1        2  2        3  0        3  1        3  2        3  3
 # jmin,jmax,maxlamb are            0          50         100
 # j and jp are          21          32
 # lam  B-lambda(j,jp)  angle
#   11     60.7424      7.1808
#   12      0.8602     12.8446
#   13     23.6650     16.9883
#   14      0.6002     20.5574
#   15     14.0485     23.8162
#   16      0.4467     26.8821
#   17      9.3071     29.8190
#   18      0.3256     32.6661
#   19      6.5242     35.4494
#   20      0.2413     38.1873
#   21      4.7794     40.8934
#   22      0.1881     43.5784
#   23      3.5669     46.2508
#   24      0.1513     48.9177
#   25      2.7424     51.5852
#   26      0.1196     54.2587
#   27      2.0934     56.9431
#   28      0.0921     59.6431
#   29      1.6659     62.3632
#   30      0.0716     65.1076
#   31      1.3832     67.8809
#   32      0.0560     70.6876
#   33      1.1324     73.5324
#   34      0.0435     76.4204
#   35      0.9486     79.3571
#   36      0.0333     82.3485
#   37      0.8227     85.4014
#   38      0.0249     88.5233
#   39      0.7354     91.7229
#   40      0.0177     95.0102
#   41      0.6625     98.3970
#   42      0.0117    101.8976
#   43      0.5263    105.5289
#   44      0.0072    109.3124
#   45      0.3525    113.2750
#   46      0.0044    117.4518
#   47      0.2455    121.8901
#   48      0.0025    126.6562
#   49      0.1990    131.8486
#   50      0.0013    137.6249
#   51      0.1591    144.2687
#   52      0.0005    152.4011
#   53      0.1784    164.1734
   0    8.43996E+01    1.0000000000000000
   1    6.47037E+01    0.7666354510746091
   2    4.84276E+01    0.5737895981353647
   3    3.75211E+01    0.4445652302099388
   4    3.01854E+01    0.3576481872616153
   5    2.39730E+01    0.2840415330439523
   6    2.01557E+01    0.2388127573716977
   7    1.71946E+01    0.2037288391006106
   8    1.50858E+01    0.1787431173381045
   9    1.30940E+01    0.1551426391477611
  10    1.19619E+01    0.1417293265792383
  11    1.06751E+01    0.1264831108736206
  12    9.84033E+00    0.1165921937248150
  13    8.93255E+00    0.1058364759675411
  14    8.45857E+00    0.1002205429716361
  15    7.71920E+00    0.0914601408309032
  16    7.37595E+00    0.0873931781111798
  17    6.74977E+00    0.0799740344469389
  18    6.51906E+00    0.0772404463995761
  19    5.98095E+00    0.0708647370933763
  20    5.86902E+00    0.0695385648347385
  21    5.37871E+00    0.0637291461265486
  22    5.31193E+00    0.0629378902661296
  23    4.84828E+00    0.0574443626891381
  24    4.85860E+00    0.0575666936739969
  25    4.42209E+00    0.0523946554845276
  26    4.50762E+00    0.0534081398557636
  27    4.02374E+00    0.0476748635278696
  28    4.21535E+00    0.0499451909057248
  29    3.63151E+00    0.0430276031317323
  30    3.98124E+00    0.0471713276680395
  31    3.28669E+00    0.0389420112924335
  32    3.77912E+00    0.0447765083024731
  33    3.00110E+00    0.0355582689593315
  34    3.58995E+00    0.0425351589286014
  35    2.71527E+00    0.0321715742987631
  36    3.39891E+00    0.0402716312338352
  37    2.44995E+00    0.0290279814919137
  38    3.30556E+00    0.0391656127519264
  39    2.11776E+00    0.0250920247487024
  40    3.32470E+00    0.0393923745986449
  41    1.72517E+00    0.0204404652097250
  42    4.03405E+00    0.0477970433901443
