  # July 4, 2014 09:19:42
 # jmin,jmax    0   50
 # Eau     0.00200000
 # r0,ra,rb,rdel,tol,Bau,mu   3.5000  25.0000  25.0000   4.0000  1.0000E-03  3.0130E-07  6.8548E+03
 # parity bigJ  0  0        1  0        1  1        2  0        2  1        2  2        3  0        3  1        3  2        3  3
 # jmin,jmax,maxlamb are            0          50         100
 # j and jp are          25          38
 # lam  B-lambda(j,jp)  angle
#   13     52.5761      6.5868
#   14      2.2948     11.7248
#   15     21.9596     15.4524
#   16      1.1852     18.6392
#   17     12.6395     21.5294
#   18      0.7983     24.2322
#   19      8.2105     26.8070
#   20      0.6255     29.2901
#   21      5.7988     31.7059
#   22      0.5203     34.0712
#   23      4.2322     36.3986
#   24      0.4035     38.6977
#   25      3.0986     40.9761
#   26      0.2813     43.2398
#   27      2.3118     45.4941
#   28      0.1945     47.7432
#   29      1.8580     49.9910
#   30      0.1438     52.2410
#   31      1.4883     54.4962
#   32      0.1064     56.7596
#   33      1.1795     59.0340
#   34      0.0775     61.3219
#   35      0.9628     63.6261
#   36      0.0574     65.9491
#   37      0.8018     68.2936
#   38      0.0414     70.6624
#   39      0.7024     73.0584
#   40      0.0279     75.4845
#   41      0.5852     77.9439
#   42      0.0179     80.4403
#   43      0.4007     82.9772
#   44      0.0116     85.5589
#   45      0.2498     88.1900
#   46      0.0075     90.8757
#   47      0.1730     93.6218
#   48      0.0046     96.4350
#   49      0.1131     99.3230
#   50      0.0027    102.2949
#   51      0.0652    105.3614
#   52      0.0015    108.5352
#   53      0.0435    111.8321
#   54      0.0007    115.2714
#   55      0.0291    118.8779
#   56      0.0003    122.6838
#   57      0.0138    126.7323
#   58      0.0001    131.0845
#   59      0.0047    135.8308
#   60      0.0000    141.1159
#   61      0.0019    147.2002
#   62      0.0000    154.6539
#   63      0.0014    165.4497
   0    7.14685E+01    1.0000000000000000
   1    6.07031E+01    0.8493685750315040
   2    4.69678E+01    0.6571818473544948
   3    3.63053E+01    0.5079899039072079
   4    2.91751E+01    0.4082239103172997
   5    2.39183E+01    0.3346687656332016
   6    1.96829E+01    0.2754072408432495
   7    1.64272E+01    0.2298518787906701
   8    1.41362E+01    0.1977967477080737
   9    1.24470E+01    0.1741602741468622
  10    1.10180E+01    0.1541662351036416
  11    9.78912E+00    0.1369710653879142
  12    8.81402E+00    0.1233273765817648
  13    8.05597E+00    0.1127205528762095
  14    7.41969E+00    0.1038175632283986
  15    6.82663E+00    0.0955193645577156
  16    6.32465E+00    0.0884956498771539
  17    5.96513E+00    0.0834651498877625
  18    5.69975E+00    0.0797519504211684
  19    5.43637E+00    0.0760666562341622
  20    5.18278E+00    0.0725184347469065
  21    4.95480E+00    0.0693284070181022
  22    4.74956E+00    0.0664566606532284
  23    4.53664E+00    0.0634775405392917
  24    4.34800E+00    0.0608380076200036
  25    4.17574E+00    0.0584277280144997
  26    4.04188E+00    0.0565546782492538
  27    3.88886E+00    0.0544136224980089
  28    3.76397E+00    0.0526661865838832
  29    3.60211E+00    0.0504012997712174
  30    3.49696E+00    0.0489300269203526
  31    3.34355E+00    0.0467835120028501
  32    3.26178E+00    0.0456394527852246
  33    3.11327E+00    0.0435614103534527
  34    3.04033E+00    0.0425408868830930
  35    2.88513E+00    0.0403692845397615
  36    2.83009E+00    0.0395990729072084
  37    2.64653E+00    0.0370307137489369
  38    2.63970E+00    0.0369351234108221
  39    2.41840E+00    0.0338386531900236
  40    2.45528E+00    0.0343547242280523
  41    2.21603E+00    0.0310071039076332
  42    2.30282E+00    0.0322214944987360
  43    1.93933E+00    0.0271354918685637
  44    2.22847E+00    0.0311811043460495
  45    1.66416E+00    0.0232852323155513
  46    2.19970E+00    0.0307785604244556
  47    1.42511E+00    0.0199404568052417
  48    2.15235E+00    0.0301161245028050
  49    1.06899E+00    0.0149574514943958
  50    2.54111E+00    0.0355556563670147
