  # July 4, 2014 09:19:42
 # jmin,jmax    0   50
 # Eau     0.00200000
 # r0,ra,rb,rdel,tol,Bau,mu   3.5000  25.0000  25.0000   4.0000  1.0000E-03  3.0130E-07  6.8548E+03
 # parity bigJ  0  0        1  0        1  1        2  0        2  1        2  2        3  0        3  1        3  2        3  3
 # jmin,jmax,maxlamb are            0          50         100
 # j and jp are          29          36
 # lam  B-lambda(j,jp)  angle
#    7    132.8948      4.6177
#    8      3.3023      8.3803
#    9     51.8306     11.1980
#   10      2.3354     13.6701
#   11     30.3669     15.9599
#   12      1.7253     18.1385
#   13     19.7406     20.2435
#   14      1.3071     22.2976
#   15     13.6781     24.3156
#   16      1.0240     26.3075
#   17      9.7850     28.2808
#   18      0.8419     30.2409
#   19      7.0559     32.1922
#   20      0.6872     34.1382
#   21      5.0391     36.0816
#   22      0.5099     38.0250
#   23      3.6991     39.9704
#   24      0.3443     41.9197
#   25      2.8304     43.8746
#   26      0.2409     45.8367
#   27      2.2011     47.8074
#   28      0.1877     49.7883
#   29      1.7837     51.7806
#   30      0.1470     53.7857
#   31      1.4284     55.8051
#   32      0.1109     57.8401
#   33      1.1361     59.8922
#   34      0.0833     61.9628
#   35      0.9367     64.0535
#   36      0.0623     66.1659
#   37      0.7972     68.3017
#   38      0.0457     70.4628
#   39      0.7042     72.6511
#   40      0.0321     74.8687
#   41      0.5768     77.1179
#   42      0.0212     79.4012
#   43      0.3878     81.7214
#   44      0.0137     84.0816
#   45      0.2422     86.4850
#   46      0.0088     88.9355
#   47      0.1681     91.4372
#   48      0.0054     93.9951
#   49      0.1080     96.6145
#   50      0.0032     99.3019
#   51      0.0617    102.0644
#   52      0.0018    104.9109
#   53      0.0414    107.8515
#   54      0.0008    110.8985
#   55      0.0269    114.0670
#   56      0.0003    117.3759
#   57      0.0120    120.8489
#   58      0.0001    124.5172
#   59      0.0039    128.4230
#   60      0.0000    132.6251
#   61      0.0014    137.2113
#   62      0.0000    142.3220
#   63      0.0007    148.2096
#   64      0.0000    155.4272
#   65      0.0004    165.8865
   0    1.04940E+02    1.0000000000000000
   1    9.28411E+01    0.8847050486547752
   2    7.63015E+01    0.7270950757540150
   3    6.20776E+01    0.5915524734779464
   4    5.15154E+01    0.4909029890645460
   5    4.32605E+01    0.4122399113999496
   6    3.64479E+01    0.3473205304590967
   7    3.10389E+01    0.2957771665653628
   8    2.70267E+01    0.2575438391001763
   9    2.40365E+01    0.2290493615727343
  10    2.15994E+01    0.2058263982535472
  11    1.95262E+01    0.1860699296029842
  12    1.78273E+01    0.1698809367940592
  13    1.64444E+01    0.1567029451726449
  14    1.52441E+01    0.1452644210718411
  15    1.41276E+01    0.1346255447533131
  16    1.31097E+01    0.1249259502936801
  17    1.22642E+01    0.1168681398137409
  18    1.15923E+01    0.1104653863154863
  19    1.09988E+01    0.1048106964883105
  20    1.04409E+01    0.0994936575664329
  21    9.94394E+00    0.0947582581424005
  22    9.51639E+00    0.0906839803828440
  23    9.11767E+00    0.0868844720872257
  24    8.73972E+00    0.0832828915374039
  25    8.39206E+00    0.0799699988251104
  26    8.08145E+00    0.0770100655822756
  27    7.78540E+00    0.0741889341489738
  28    7.50797E+00    0.0715452666027034
  29    7.24590E+00    0.0690478985640292
  30    7.02084E+00    0.0669033202040236
  31    6.80297E+00    0.0648271346257648
  32    6.61666E+00    0.0630518072195864
  33    6.40784E+00    0.0610618569358187
  34    6.24487E+00    0.0595088937061247
  35    6.04542E+00    0.0576082318811735
  36    5.91579E+00    0.0563729891664388
  37    5.73750E+00    0.0546740754894975
  38    5.63418E+00    0.0536894367188260
  39    5.46713E+00    0.0520975949071958
  40    5.39103E+00    0.0513724671046382
  41    5.20635E+00    0.0496125530476832
  42    5.18232E+00    0.0493835936606786
  43    4.96611E+00    0.0473232401922542
  44    4.98400E+00    0.0474937872987029
  45    4.75153E+00    0.0452784811016486
  46    4.81037E+00    0.0458391782566198
  47    4.47991E+00    0.0426901300157999
  48    4.70673E+00    0.0448515976555989
  49    4.20122E+00    0.0400344396443771
  50    4.62979E+00    0.0441183990902661
  51    3.93001E+00    0.0374500625058450
  52    4.49456E+00    0.0428297606306975
  53    3.66526E+00    0.0349271707231623
  54    4.43776E+00    0.0422884914395071
  55    3.36883E+00    0.0321023578729904
  56    4.60011E+00    0.0438355927372020
  57    2.86979E+00    0.0273469135449949
  58    5.33132E+00    0.0508034459055088
