  # July 4, 2014 09:19:42
 # jmin,jmax    0   50
 # Eau     0.00200000
 # r0,ra,rb,rdel,tol,Bau,mu   3.5000  25.0000  25.0000   4.0000  1.0000E-03  3.0130E-07  6.8548E+03
 # parity bigJ  0  0        1  0        1  1        2  0        2  1        2  2        3  0        3  1        3  2        3  3
 # jmin,jmax,maxlamb are            0          50         100
 # j and jp are          22          39
 # lam  B-lambda(j,jp)  angle
#   17     31.5379      7.9128
#   18      1.1200     14.0182
#   19     13.2712     18.4077
#   20      0.7117     22.1313
#   21      7.8943     25.4866
#   22      0.4553     28.6070
#   23      4.9118     31.5661
#   24      0.3059     34.4091
#   25      3.4395     37.1663
#   26      0.2210     39.8593
#   27      2.5850     42.5039
#   28      0.1659     45.1126
#   29      1.9948     47.6951
#   30      0.1202     50.2597
#   31      1.5321     52.8131
#   32      0.0840     55.3613
#   33      1.1929     57.9096
#   34      0.0608     60.4628
#   35      0.9707     63.0255
#   36      0.0453     65.6019
#   37      0.8151     68.1962
#   38      0.0330     70.8126
#   39      0.7153     73.4553
#   40      0.0228     76.1288
#   41      0.5960     78.8374
#   42      0.0151     81.5862
#   43      0.4105     84.3805
#   44      0.0098     87.2259
#   45      0.2562     90.1290
#   46      0.0063     93.0970
#   47      0.1779     96.1382
#   48      0.0039     99.2622
#   49      0.1186    102.4803
#   50      0.0022    105.8060
#   51      0.0692    109.2557
#   52      0.0012    112.8495
#   53      0.0464    116.6133
#   54      0.0006    120.5803
#   55      0.0322    124.7956
#   56      0.0002    129.3222
#   57      0.0164    134.2537
#   58      0.0001    139.7399
#   59      0.0064    146.0501
#   60      0.0000    153.7741
#   61      0.0037    164.9538
   0    5.53714E+01    1.0000000000000000
   1    4.54116E+01    0.8201272612540468
   2    3.36006E+01    0.6068233492206688
   3    2.52192E+01    0.4554551127167512
   4    1.99891E+01    0.3610012258828073
   5    1.61680E+01    0.2919928629662371
   6    1.30636E+01    0.2359266292327777
   7    1.07396E+01    0.1939561595331663
   8    9.19900E+00    0.1661328443907206
   9    8.06637E+00    0.1456776595846213
  10    7.10566E+00    0.1283272626976559
  11    6.30333E+00    0.1138373228466300
  12    5.74122E+00    0.1036856818860077
  13    5.37745E+00    0.0971161681576469
  14    5.08467E+00    0.0918285055734328
  15    4.75704E+00    0.0859115196538834
  16    4.46698E+00    0.0806731758638553
  17    4.22084E+00    0.0762277867967730
  18    3.99480E+00    0.0721455108078464
  19    3.74223E+00    0.0675841737597276
  20    3.53707E+00    0.0638789730562766
  21    3.34469E+00    0.0604047512403834
  22    3.20055E+00    0.0578015829617783
  23    3.02586E+00    0.0546465752684776
  24    2.91104E+00    0.0525730915744636
  25    2.76060E+00    0.0498560343865008
  26    2.68680E+00    0.0485233620970466
  27    2.54952E+00    0.0460440663105046
  28    2.49169E+00    0.0449996936266126
  29    2.35304E+00    0.0424956579843793
  30    2.30198E+00    0.0415734225032839
  31    2.15206E+00    0.0388660004754390
  32    2.11803E+00    0.0382514243205302
  33    1.93162E+00    0.0348848330343009
  34    1.93925E+00    0.0350226632531380
  35    1.70502E+00    0.0307925382771193
  36    1.75489E+00    0.0316931305838837
  37    1.49865E+00    0.0270654879040106
  38    1.61443E+00    0.0291564765599303
  39    1.23464E+00    0.0222973656948575
  40    1.58961E+00    0.0287081040881066
  41    9.65892E-01    0.0174438977272910
  42    1.64439E+00    0.0296973994923037
  43    7.58179E-01    0.0136926099985392
  44    1.95815E+00    0.0353639106368718
