  # July 4, 2014 09:19:42
 # jmin,jmax    0   50
 # Eau     0.00200000
 # r0,ra,rb,rdel,tol,Bau,mu   3.5000  25.0000  25.0000   4.0000  1.0000E-03  3.0130E-07  6.8548E+03
 # parity bigJ  0  0        1  0        1  1        2  0        2  1        2  2        3  0        3  1        3  2        3  3
 # jmin,jmax,maxlamb are            0          50         100
 # j and jp are          22          36
 # lam  B-lambda(j,jp)  angle
#   14     26.4298      7.4714
#   15      2.2103     13.2851
#   16      9.2745     17.4938
#   17      1.0526     21.0858
#   18      5.2073     24.3398
#   19      0.6503     27.3803
#   20      3.5433     30.2754
#   21      0.4493     33.0670
#   22      2.6201     35.7832
#   23      0.3088     38.4437
#   24      1.9463     41.0632
#   25      0.1991     43.6530
#   26      1.4999     46.2221
#   27      0.1252     48.7781
#   28      1.1749     51.3273
#   29      0.0825     53.8752
#   30      0.8974     56.4266
#   31      0.0574     58.9862
#   32      0.7593     61.5582
#   33      0.0421     64.1466
#   34      0.6742     66.7555
#   35      0.0329     69.3889
#   36      0.5091     72.0509
#   37      0.0264     74.7457
#   38      0.3750     77.4779
#   39      0.0207     80.2522
#   40      0.3140     83.0739
#   41      0.0159     85.9488
#   42      0.2752     88.8833
#   43      0.0118     91.8847
#   44      0.2302     94.9613
#   45      0.0082     98.1229
#   46      0.1724    101.3807
#   47      0.0054    104.7485
#   48      0.1303    108.2428
#   49      0.0034    111.8841
#   50      0.1180    115.6984
#   51      0.0018    119.7195
#   52      0.0996    123.9932
#   53      0.0008    128.5833
#   54      0.0629    133.5849
#   55      0.0003    139.1498
#   56      0.0347    145.5514
#   57      0.0001    153.3885
#   58      0.0298    164.7337
   0    4.05580E+01    1.0000000000000000
   1    3.22698E+01    0.7956445905737665
   2    2.43375E+01    0.6000658408126336
   3    1.89026E+01    0.4660627436647529
   4    1.51336E+01    0.3731344445875784
   5    1.23889E+01    0.3054614770363128
   6    1.04242E+01    0.2570201571019457
   7    8.81913E+00    0.2174446447273944
   8    7.67137E+00    0.1891454853613940
   9    6.68171E+00    0.1647443344177945
  10    5.93601E+00    0.1463584625450770
  11    5.27863E+00    0.1301500685359799
  12    4.69503E+00    0.1157607402362333
  13    4.11996E+00    0.1015818288506909
  14    3.76167E+00    0.0927478429551846
  15    3.43577E+00    0.0847123875066273
  16    3.19307E+00    0.0787283608392678
  17    2.89287E+00    0.0713265883169475
  18    2.70603E+00    0.0667198137203304
  19    2.48581E+00    0.0612901943733682
  20    2.40314E+00    0.0592517451768218
  21    2.21457E+00    0.0546023576243166
  22    2.14186E+00    0.0528096876542395
  23    1.92608E+00    0.0474895447496552
  24    1.89687E+00    0.0467692017490384
  25    1.70173E+00    0.0419577875148399
  26    1.71844E+00    0.0423699647305889
  27    1.52057E+00    0.0374913142118218
  28    1.55212E+00    0.0382689795357897
  29    1.36056E+00    0.0335459884051084
  30    1.40741E+00    0.0347011311634540
  31    1.21940E+00    0.0300656123864604
  32    1.28730E+00    0.0317397380129189
  33    1.07886E+00    0.0266003848814534
  34    1.19644E+00    0.0294995526921319
  35    9.54024E-01    0.0235224251940025
  36    1.12892E+00    0.0278346119530804
  37    8.36608E-01    0.0206274253675561
  38    1.09657E+00    0.0270371450067542
  39    7.90135E-01    0.0194815714423761
  40    1.05415E+00    0.0259911509882336
  41    6.47106E-01    0.0159550677774949
  42    1.16286E+00    0.0286715033586813
  43    5.04687E-01    0.0124435629200242
  44    1.46875E+00    0.0362134924144375
