  # July 4, 2014 09:19:42
 # jmin,jmax    0   50
 # Eau     0.00200000
 # r0,ra,rb,rdel,tol,Bau,mu   3.5000  25.0000  25.0000   4.0000  1.0000E-03  3.0130E-07  6.8548E+03
 # parity bigJ  0  0        1  0        1  1        2  0        2  1        2  2        3  0        3  1        3  2        3  3
 # jmin,jmax,maxlamb are            0          50         100
 # j and jp are          19          34
 # lam  B-lambda(j,jp)  angle
#   15     34.5035      8.5413
#   16      0.5966     15.1783
#   17     13.9283     19.9761
#   18      0.3924     24.0672
#   19      8.3557     27.7714
#   20      0.2799     31.2323
#   21      5.5350     34.5286
#   22      0.2044     37.7090
#   23      3.8629     40.8062
#   24      0.1505     43.8435
#   25      2.9249     46.8385
#   26      0.1131     49.8048
#   27      2.2332     52.7537
#   28      0.0871     55.6946
#   29      1.7478     58.6356
#   30      0.0674     61.5842
#   31      1.4193     64.5473
#   32      0.0519     67.5312
#   33      1.1467     70.5426
#   34      0.0402     73.5878
#   35      0.9528     76.6736
#   36      0.0307     79.8071
#   37      0.8217     82.9959
#   38      0.0227     86.2484
#   39      0.7329     89.5740
#   40      0.0162     92.9835
#   41      0.6551     96.4893
#   42      0.0107    100.1063
#   43      0.5125    103.8523
#   44      0.0066    107.7492
#   45      0.3405    111.8248
#   46      0.0040    116.1151
#   47      0.2388    120.6684
#   48      0.0023    125.5525
#   49      0.1925    130.8678
#   50      0.0012    136.7750
#   51      0.1513    143.5631
#   52      0.0005    151.8650
#   53      0.1697    163.8743
   0    6.41457E+01    1.0000000000000000
   1    4.69983E+01    0.7326799003094641
   2    3.36318E+01    0.5243027771415136
   3    2.53293E+01    0.3948717328515768
   4    2.01962E+01    0.3148491663267415
   5    1.57009E+01    0.2447688726180343
   6    1.30694E+01    0.2037449306655520
   7    1.10374E+01    0.1720678916802618
   8    9.67961E+00    0.1509002690541447
   9    8.26227E+00    0.1288046009338426
  10    7.60801E+00    0.1186050184426264
  11    6.79868E+00    0.1059879940990024
  12    6.33365E+00    0.0987384929840394
  13    5.70494E+00    0.0889372347655963
  14    5.46323E+00    0.0851690089159610
  15    4.93172E+00    0.0768829733536324
  16    4.76101E+00    0.0742216882420843
  17    4.29643E+00    0.0669791685833417
  18    4.20590E+00    0.0655678589982670
  19    3.78219E+00    0.0589624223977510
  20    3.78316E+00    0.0589775144546907
  21    3.40610E+00    0.0530994440062590
  22    3.45257E+00    0.0538237938266025
  23    3.06628E+00    0.0478018109505423
  24    3.14642E+00    0.0490511095632356
  25    2.74399E+00    0.0427774990365083
  26    2.90612E+00    0.0453050168826428
  27    2.43999E+00    0.0380382509820858
  28    2.74418E+00    0.0427804240979492
  29    2.14811E+00    0.0334879970203767
  30    2.62226E+00    0.0408797505829149
  31    1.88509E+00    0.0293876403025133
  32    2.47991E+00    0.0386605515176896
  33    1.60885E+00    0.0250810945302569
  34    2.33206E+00    0.0363555836294491
  35    1.35715E+00    0.0211573491054214
  36    2.31705E+00    0.0361216364979917
  37    1.04957E+00    0.0163623411761563
  38    2.81008E+00    0.0438077209379668
