  # July 4, 2014 09:19:42
 # jmin,jmax    0   50
 # Eau     0.00200000
 # r0,ra,rb,rdel,tol,Bau,mu   3.5000  25.0000  25.0000   4.0000  1.0000E-03  3.0130E-07  6.8548E+03
 # parity bigJ  0  0        1  0        1  1        2  0        2  1        2  2        3  0        3  1        3  2        3  3
 # jmin,jmax,maxlamb are            0          50         100
 # j and jp are          26          31
 # lam  B-lambda(j,jp)  angle
#    5    180.0204      4.4328
#    6      2.6953      8.1829
#    7     66.3588     11.0589
#    8      1.5840     13.6285
#    9     37.6731     16.0421
#   10      1.1182     18.3637
#   11     24.2284     20.6269
#   12      0.8406     22.8516
#   13     16.1508     25.0504
#   14      0.6507     27.2322
#   15     11.3590     29.4034
#   16      0.5202     31.5689
#   17      8.2774     33.7325
#   18      0.4011     35.8973
#   19      6.0987     38.0660
#   20      0.3074     40.2409
#   21      4.5553     42.4243
#   22      0.2417     44.6179
#   23      3.4418     46.8237
#   24      0.1951     49.0435
#   25      2.6865     51.2791
#   26      0.1566     53.5322
#   27      2.0711     55.8047
#   28      0.1229     58.0984
#   29      1.6627     60.4152
#   30      0.0964     62.7573
#   31      1.3794     65.1267
#   32      0.0755     67.5259
#   33      1.1251     69.9572
#   34      0.0586     72.4235
#   35      0.9405     74.9277
#   36      0.0449     77.4731
#   37      0.8100     80.0634
#   38      0.0336     82.7024
#   39      0.7197     85.3949
#   40      0.0240     88.1459
#   41      0.6337     90.9613
#   42      0.0159     93.8478
#   43      0.4787     96.8133
#   44      0.0100     99.8670
#   45      0.3068    103.0197
#   46      0.0063    106.2846
#   47      0.2092    109.6778
#   48      0.0038    113.2192
#   49      0.1556    116.9343
#   50      0.0022    120.8561
#   51      0.1028    125.0296
#   52      0.0011    129.5174
#   53      0.0703    134.4128
#   54      0.0005    139.8655
#   55      0.0594    146.1441
#   56      0.0002    153.8375
#   57      0.0596    164.9837
   0    1.21810E+02    1.0000000000000000
   1    1.03384E+02    0.8487366765684334
   2    8.34681E+01    0.6852345319331937
   3    6.84893E+01    0.5622655189881416
   4    5.74309E+01    0.4714805598361562
   5    4.81228E+01    0.3950653708206279
   6    4.09980E+01    0.3365745119246715
   7    3.56607E+01    0.2927579968163386
   8    3.15801E+01    0.2592582036934882
   9    2.80223E+01    0.2300501557212829
  10    2.52253E+01    0.2070877342946076
  11    2.29225E+01    0.1881832519380198
  12    2.10544E+01    0.1728470909808904
  13    1.92743E+01    0.1582328977918093
  14    1.79234E+01    0.1471426063743282
  15    1.67038E+01    0.1371306482890008
  16    1.57072E+01    0.1289485778991175
  17    1.47095E+01    0.1207581053148802
  18    1.39682E+01    0.1146725261672588
  19    1.31941E+01    0.1083171410281013
  20    1.26068E+01    0.1034957239354356
  21    1.19554E+01    0.0981485300481918
  22    1.14775E+01    0.0942245178348832
  23    1.08932E+01    0.0894277455552280
  24    1.05030E+01    0.0862245630593852
  25    1.00060E+01    0.0821448416565419
  26    9.73876E+00    0.0799507100498128
  27    9.29014E+00    0.0762676929452836
  28    9.10132E+00    0.0747175688574946
  29    8.67575E+00    0.0712238178073666
  30    8.57297E+00    0.0703800605087435
  31    8.18320E+00    0.0671802350687188
  32    8.14494E+00    0.0668661921747603
  33    7.75200E+00    0.0636403324549022
  34    7.77528E+00    0.0638313871518815
  35    7.31911E+00    0.0600865040430306
  36    7.47831E+00    0.0613934475596807
  37    6.90588E+00    0.0566940339348827
  38    7.23907E+00    0.0594293505424934
  39    6.55202E+00    0.0537889999583976
  40    7.00740E+00    0.0575274777154211
  41    6.22778E+00    0.0511271814967048
  42    6.80933E+00    0.0559014491935200
  43    5.99068E+00    0.0491807043292287
  44    6.69072E+00    0.0549276541309400
  45    5.73286E+00    0.0470640842907213
  46    6.66706E+00    0.0547334276092457
  47    5.48337E+00    0.0450159278777549
  48    6.72687E+00    0.0552244705924456
  49    5.08564E+00    0.0417507343272646
  50    7.01014E+00    0.0575499487992239
  51    4.32428E+00    0.0355002920320829
  52    8.83506E+00    0.0725316996160396
