  # July 4, 2014 09:19:42
 # jmin,jmax    0   50
 # Eau     0.00200000
 # r0,ra,rb,rdel,tol,Bau,mu   3.5000  25.0000  25.0000   4.0000  1.0000E-03  3.0130E-07  6.8548E+03
 # parity bigJ  0  0        1  0        1  1        2  0        2  1        2  2        3  0        3  1        3  2        3  3
 # jmin,jmax,maxlamb are            0          50         100
 # j and jp are          32          41
 # lam  B-lambda(j,jp)  angle
#    9     98.0103      4.6782
#   10      6.8993      8.4076
#   11     41.0015     11.1585
#   12      3.9326     13.5424
#   13     25.4856     15.7286
#   14      2.6863     17.7916
#   15     16.3084     19.7712
#   16      1.9777     21.6918
#   17     11.1753     23.5690
#   18      1.5482     25.4139
#   19      8.0812     27.2345
#   20      1.2881     29.0366
#   21      5.7671     30.8250
#   22      1.0397     32.6032
#   23      4.1657     34.3744
#   24      0.7634     36.1410
#   25      3.0894     37.9051
#   26      0.5323     39.6687
#   27      2.5145     41.4333
#   28      0.3903     43.2005
#   29      2.0201     44.9716
#   30      0.2928     46.7479
#   31      1.4761     48.5305
#   32      0.2051     50.3206
#   33      1.1235     52.1193
#   34      0.1354     53.9277
#   35      0.9220     55.7468
#   36      0.0888     57.5778
#   37      0.7891     59.4216
#   38      0.0580     61.2795
#   39      0.6783     63.1526
#   40      0.0374     65.0421
#   41      0.5017     66.9491
#   42      0.0247     68.8751
#   43      0.3149     70.8213
#   44      0.0165     72.7893
#   45      0.2055     74.7806
#   46      0.0103     76.7969
#   47      0.1327     78.8400
#   48      0.0062     80.9118
#   49      0.0721     83.0145
#   50      0.0037     85.1505
#   51      0.0434     87.3222
#   52      0.0020     89.5326
#   53      0.0298     91.7848
#   54      0.0008     94.0824
#   55      0.0151     96.4293
#   56      0.0003     98.8301
#   57      0.0051    101.2900
#   58      0.0001    103.8149
#   59      0.0016    106.4117
#   60      0.0000    109.0887
#   61      0.0006    111.8555
#   62      0.0000    114.7238
#   63      0.0002    117.7079
#   64      0.0000    120.8254
#   65      0.0000    124.0991
#   66      0.0000    127.5584
#   67      0.0000    131.2431
#   68      0.0000    135.2090
#   69      0.0000    139.5392
#   70      0.0000    144.3664
#   71      0.0000    149.9296
#   72      0.0000    156.7518
#   73      0.0000    166.6402
   0    9.14859E+01    1.0000000000000000
   1    8.29261E+01    0.9064353590994395
   2    6.97490E+01    0.7624018920278366
   3    5.66504E+01    0.6192252188260029
   4    4.61300E+01    0.5042304375475988
   5    3.82387E+01    0.4179741117590970
   6    3.21109E+01    0.3509927392883642
   7    2.71594E+01    0.2968700595753271
   8    2.32107E+01    0.2537080683305927
   9    2.01750E+01    0.2205262732763906
  10    1.78521E+01    0.1951344651470902
  11    1.59789E+01    0.1746596800581323
  12    1.43752E+01    0.1571300452741345
  13    1.30073E+01    0.1421777841380464
  14    1.19039E+01    0.1301169852506644
  15    1.10370E+01    0.1206420672732052
  16    1.03125E+01    0.1127219021681071
  17    9.64716E+00    0.1054497156300726
  18    9.01878E+00    0.0985810946705972
  19    8.45412E+00    0.0924089696800969
  20    7.99304E+00    0.0873691239951514
  21    7.64596E+00    0.0835753109423703
  22    7.37113E+00    0.0805712111274704
  23    7.10720E+00    0.0776862414796442
  24    6.82814E+00    0.0746360148502590
  25    6.54778E+00    0.0715714365926108
  26    6.27921E+00    0.0686357912028875
  27    6.01861E+00    0.0657872725198376
  28    5.76695E+00    0.0630365000696319
  29    5.53948E+00    0.0605501324013632
  30    5.34545E+00    0.0584291938890197
  31    5.17393E+00    0.0565544271792479
  32    5.00732E+00    0.0547332210711376
  33    4.84045E+00    0.0529092865261362
  34    4.68219E+00    0.0511793758809528
  35    4.54292E+00    0.0496570368031974
  36    4.42578E+00    0.0483766432672521
  37    4.32597E+00    0.0472856610672398
  38    4.23709E+00    0.0463141162493900
  39    4.15258E+00    0.0453904075433267
  40    4.07160E+00    0.0445051821188504
  41    3.99184E+00    0.0436333587627341
  42    3.91740E+00    0.0428197306457505
  43    3.84682E+00    0.0420482536436716
  44    3.78232E+00    0.0413431653776124
  45    3.72163E+00    0.0406798343382321
  46    3.66984E+00    0.0401136973246454
  47    3.60444E+00    0.0393989052894633
  48    3.56908E+00    0.0390123328714056
  49    3.48793E+00    0.0381253236704667
  50    3.44423E+00    0.0376476872033384
  51    3.35183E+00    0.0366376805573799
  52    3.29946E+00    0.0360652771591379
  53    3.14603E+00    0.0343881025483668
  54    3.14198E+00    0.0343438193767143
  55    2.97408E+00    0.0325086627978100
  56    3.00298E+00    0.0328244644097907
  57    2.72382E+00    0.0297731538230076
  58    2.90669E+00    0.0317720267074079
  59    2.40692E+00    0.0263091590287584
  60    2.92936E+00    0.0320197910113156
  61    2.17814E+00    0.0238084743769531
  62    2.77575E+00    0.0303407904631633
  63    1.60399E+00    0.0175326988189603
  64    3.13504E+00    0.0342680062994845
