  # July 4, 2014 09:19:42
 # jmin,jmax    0   50
 # Eau     0.00200000
 # r0,ra,rb,rdel,tol,Bau,mu   3.5000  25.0000  25.0000   4.0000  1.0000E-03  3.0130E-07  6.8548E+03
 # parity bigJ  0  0        1  0        1  1        2  0        2  1        2  2        3  0        3  1        3  2        3  3
 # jmin,jmax,maxlamb are            0          50         100
 # j and jp are          23          25
 # lam  B-lambda(j,jp)  angle
#    2   2729.0744      3.3098
#    3     51.6365      6.6245
#    4    325.9550      9.3741
#    5     15.3115     11.9583
#    6     98.0698     14.4693
#    7      4.5018     16.9429
#    8     38.7782     19.3970
#    9      1.5864     21.8417
#   10     18.4304     24.2837
#   11      0.6954     26.7274
#   12      9.8826     29.1764
#   13      0.3707     31.6335
#   14      5.8957     34.1013
#   15      0.2221     36.5819
#   16      3.9313     39.0774
#   17      0.1459     41.5900
#   18      2.8076     44.1216
#   19      0.1094     46.6743
#   20      2.1022     49.2503
#   21      0.0874     51.8518
#   22      1.7080     54.4813
#   23      0.0714     57.1411
#   24      1.3581     59.8341
#   25      0.0592     62.5633
#   26      1.1418     65.3318
#   27      0.0492     68.1432
#   28      0.9968     71.0015
#   29      0.0407     73.9111
#   30      0.8414     76.8768
#   31      0.0331     79.9043
#   32      0.7072     83.0000
#   33      0.0264     86.1710
#   34      0.6496     89.4261
#   35      0.0205     92.7750
#   36      0.5467     96.2297
#   37      0.0155     99.8043
#   38      0.4045    103.5164
#   39      0.0116    107.3875
#   40      0.3353    111.4451
#   41      0.0085    115.7253
#   42      0.3182    120.2766
#   43      0.0058    125.1669
#   44      0.3127    130.4976
#   45      0.0036    136.4308
#   46      0.3171    143.2579
#   47      0.0017    151.6184
#   48      0.4373    163.7264
   0    4.28111E+02    1.0000000000000000
   1    4.08392E+02    0.9539381974009292
   2    3.93091E+02    0.9181976689410767
   3    3.76410E+02    0.8792342432815526
   4    3.61541E+02    0.8445031850615368
   5    3.44931E+02    0.8057035184311191
   6    3.29406E+02    0.7694397576408870
   7    3.13403E+02    0.7320587977539056
   8    2.98851E+02    0.6980682335029154
   9    2.83951E+02    0.6632647972862387
  10    2.70553E+02    0.6319690010558587
  11    2.57151E+02    0.6006636580148580
  12    2.45051E+02    0.5723997006759147
  13    2.32899E+02    0.5440155244898750
  14    2.22075E+02    0.5187311558955510
  15    2.11165E+02    0.4932474057946264
  16    2.01371E+02    0.4703700938011368
  17    1.91463E+02    0.4472264370071187
  18    1.82677E+02    0.4267054459584306
  19    1.73687E+02    0.4057040214548331
  20    1.65682E+02    0.3870078663987691
  21    1.57430E+02    0.3677302590243613
  22    1.50149E+02    0.3507239204064773
  23    1.42570E+02    0.3330203274442154
  24    1.35903E+02    0.3174479718092943
  25    1.28875E+02    0.3010311911669057
  26    1.22700E+02    0.2866068096050210
  27    1.16123E+02    0.2712439661092859
  28    1.10384E+02    0.2578403968381792
  29    1.04184E+02    0.2433576992834208
  30    9.89095E+01    0.2310367392556456
  31    9.29438E+01    0.2171018277328260
  32    8.81001E+01    0.2057876952880262
  33    8.23440E+01    0.1923424484103593
  34    7.78704E+01    0.1818927638027357
  35    7.23497E+01    0.1689974752486377
  36    6.82012E+01    0.1593070794163707
  37    6.27775E+01    0.1466382068535366
  38    5.89967E+01    0.1378069909973587
  39    5.36401E+01    0.1252946098638399
  40    5.01656E+01    0.1171788227497107
  41    4.46642E+01    0.1043284574870860
  42    4.15031E+01    0.0969445785159355
  43    3.55299E+01    0.0829922078160672
  44    3.28393E+01    0.0767073493855132
  45    2.53792E+01    0.0592816744427757
  46    2.44228E+01    0.0570477674722696
