  # July 4, 2014 09:19:42
 # jmin,jmax    0   50
 # Eau     0.00200000
 # r0,ra,rb,rdel,tol,Bau,mu   3.5000  25.0000  25.0000   4.0000  1.0000E-03  3.0130E-07  6.8548E+03
 # parity bigJ  0  0        1  0        1  1        2  0        2  1        2  2        3  0        3  1        3  2        3  3
 # jmin,jmax,maxlamb are            0          50         100
 # j and jp are          14          43
 # lam  B-lambda(j,jp)  angle
#   29      7.5592     12.2420
#   30      0.0611     21.6170
#   31      2.8954     28.2989
#   32      0.0519     33.9300
#   33      1.6627     38.9799
#   34      0.0378     43.6619
#   35      1.2291     48.0948
#   36      0.0256     52.3535
#   37      1.0041     56.4896
#   38      0.0168     60.5408
#   39      0.8471     64.5368
#   40      0.0113     68.5017
#   41      0.6665     72.4566
#   42      0.0080     76.4204
#   43      0.4261     80.4111
#   44      0.0055     84.4466
#   45      0.2510     88.5455
#   46      0.0035     92.7280
#   47      0.1735     97.0166
#   48      0.0020    101.4380
#   49      0.1166    106.0243
#   50      0.0011    110.8160
#   51      0.0699    115.8666
#   52      0.0006    121.2500
#   53      0.0499    127.0747
#   54      0.0002    133.5134
#   55      0.0391    140.8758
#   56      0.0001    149.8396
#   57      0.0321    162.7559
   0    2.28710E+01    1.0000000000000000
   1    1.64640E+01    0.7198604840899887
   2    1.04715E+01    0.4578498093068262
   3    7.08302E+00    0.3096935076245049
   4    5.75607E+00    0.2516747767956847
   5    4.91085E+00    0.2147191728603149
   6    4.10972E+00    0.1796908546154487
   7    3.28079E+00    0.1434473164851896
   8    2.75449E+00    0.1204355564756720
   9    2.40934E+00    0.1053445337012948
  10    2.25265E+00    0.0984934954019046
  11    1.99010E+00    0.0870141327812303
  12    1.81827E+00    0.0795008908410991
  13    1.62968E+00    0.0712553412704154
  14    1.56345E+00    0.0683592020109055
  15    1.39291E+00    0.0609029262292846
  16    1.32014E+00    0.0577209645536640
  17    1.15524E+00    0.0505108118847226
  18    1.11438E+00    0.0487246775356728
  19    9.66893E-01    0.0422758672301677
  20    9.50394E-01    0.0415544537361634
  21    8.07572E-01    0.0353097841163577
  22    8.36531E-01    0.0365759705760794
  23    6.77701E-01    0.0296313813278833
  24    7.96179E-01    0.0348116541643660
  25    5.88396E-01    0.0257266541994216
  26    7.80669E-01    0.0341334823731234
  27    5.39946E-01    0.0236082544624740
  28    1.21486E+00    0.0531178008237333
