  # July 4, 2014 09:19:42
 # jmin,jmax    0   50
 # Eau     0.00200000
 # r0,ra,rb,rdel,tol,Bau,mu   3.5000  25.0000  25.0000   4.0000  1.0000E-03  3.0130E-07  6.8548E+03
 # parity bigJ  0  0        1  0        1  1        2  0        2  1        2  2        3  0        3  1        3  2        3  3
 # jmin,jmax,maxlamb are            0          50         100
 # j and jp are          26          27
 # lam  B-lambda(j,jp)  angle
#    1   1087.5433      2.1226
#    2      5.3509      4.7479
#    3    189.3237      7.0448
#    4      2.9569      9.2630
#    5     84.0074     11.4506
#    6      1.8797     13.6245
#    7     48.0564     15.7930
#    8      1.3289     17.9604
#    9     30.5877     20.1297
#   10      0.9976     22.3031
#   11     20.9674     24.4823
#   12      0.6859     26.6686
#   13     14.4961     28.8635
#   14      0.5118     31.0681
#   15     10.3401     33.2836
#   16      0.4209     35.5112
#   17      7.5252     37.7522
#   18      0.3444     40.0077
#   19      5.6096     42.2791
#   20      0.2719     44.5676
#   21      4.2518     46.8747
#   22      0.2087     49.2017
#   23      3.2316     51.5504
#   24      0.1612     53.9223
#   25      2.5562     56.3193
#   26      0.1276     58.7432
#   27      2.0086     61.1962
#   28      0.1011     63.6805
#   29      1.6184     66.1985
#   30      0.0795     68.7530
#   31      1.3555     71.3470
#   32      0.0621     73.9838
#   33      1.1207     76.6670
#   34      0.0482     79.4007
#   35      0.9448     82.1896
#   36      0.0368     85.0389
#   37      0.8248     87.9547
#   38      0.0274     90.9438
#   39      0.7408     94.0144
#   40      0.0195     97.1758
#   41      0.6722    100.4393
#   42      0.0129    103.8185
#   43      0.5421    107.3299
#   44      0.0079    110.9940
#   45      0.3668    114.8372
#   46      0.0048    118.8936
#   47      0.2536    123.2094
#   48      0.0028    127.8495
#   49      0.2063    132.9102
#   50      0.0014    138.5458
#   51      0.1682    145.0340
#   52      0.0006    152.9830
#   53      0.1890    164.4986
   0    1.84661E+02    1.0000000000000000
   1    1.60595E+02    0.8696756305081133
   2    1.38518E+02    0.7501238205332648
   3    1.21602E+02    0.6585183336380750
   4    1.08536E+02    0.5877598040903497
   5    9.72057E+01    0.5264016306952842
   6    8.90339E+01    0.4821487703946863
   7    8.22185E+01    0.4452407814745099
   8    7.67366E+01    0.4155544336044454
   9    7.18451E+01    0.3890656480572205
  10    6.81458E+01    0.3690325815894512
  11    6.44924E+01    0.3492479292192655
  12    6.15587E+01    0.3333609502362214
  13    5.87228E+01    0.3180038252448124
  14    5.64436E+01    0.3056611010287458
  15    5.40218E+01    0.2925462606660303
  16    5.21296E+01    0.2822994186101933
  17    5.00439E+01    0.2710047209792874
  18    4.84382E+01    0.2623090178477748
  19    4.65895E+01    0.2522978760943179
  20    4.52198E+01    0.2448803337797980
  21    4.35506E+01    0.2358412398305536
  22    4.23897E+01    0.2295546807019389
  23    4.09102E+01    0.2215427348571452
  24    3.99285E+01    0.2162261341031957
  25    3.85482E+01    0.2087515808814309
  26    3.77023E+01    0.2041708105395458
  27    3.63899E+01    0.1970637251945339
  28    3.57258E+01    0.1934674235019692
  29    3.44132E+01    0.1863592868779202
  30    3.39237E+01    0.1837082009110276
  31    3.25428E+01    0.1762301612913284
  32    3.22258E+01    0.1745136765147351
  33    3.08137E+01    0.1668663440830014
  34    3.06551E+01    0.1660077217463266
  35    2.92510E+01    0.1584039909505680
  36    2.92265E+01    0.1582715771870530
  37    2.78165E+01    0.1506357415542991
  38    2.79135E+01    0.1511611434126502
  39    2.65047E+01    0.1435319194228670
  40    2.67529E+01    0.1448761855849540
  41    2.52029E+01    0.1364820696716575
  42    2.56516E+01    0.1389119554333574
  43    2.39456E+01    0.1296734814616801
  44    2.47048E+01    0.1337850273690654
  45    2.27141E+01    0.1230046164868680
  46    2.40184E+01    0.1300674937677083
  47    2.15148E+01    0.1165100973893656
  48    2.38666E+01    0.1292458823973514
  49    2.01794E+01    0.1092781125444716
  50    2.48702E+01    0.1346803804163818
  51    1.78634E+01    0.0967360913956795
  52    3.27593E+01    0.1774028890453513
