  # July 4, 2014 09:19:42
 # jmin,jmax    0   50
 # Eau     0.00200000
 # r0,ra,rb,rdel,tol,Bau,mu   3.5000  25.0000  25.0000   4.0000  1.0000E-03  3.0130E-07  6.8548E+03
 # parity bigJ  0  0        1  0        1  1        2  0        2  1        2  2        3  0        3  1        3  2        3  3
 # jmin,jmax,maxlamb are            0          50         100
 # j and jp are          30          31
 # lam  B-lambda(j,jp)  angle
#    1   1218.9295      1.8486
#    2      8.3632      4.1347
#    3    210.5268      6.1344
#    4      4.9302      8.0650
#    5     94.2763      9.9682
#    6      3.1975     11.8588
#    7     53.7665     13.7435
#    8      2.1925     15.6260
#    9     34.1388     17.5089
#   10      1.6448     19.3938
#   11     22.9430     21.2818
#   12      1.2313     23.1741
#   13     15.7837     25.0717
#   14      0.9844     26.9752
#   15     11.4086     28.8856
#   16      0.7649     30.8036
#   17      8.1791     32.7299
#   18      0.5529     34.6653
#   19      6.1344     36.6106
#   20      0.4040     38.5666
#   21      4.6020     40.5340
#   22      0.3155     42.5137
#   23      3.4518     44.5065
#   24      0.2463     46.5135
#   25      2.7095     48.5356
#   26      0.1894     50.5736
#   27      2.1004     52.6289
#   28      0.1491     54.7024
#   29      1.6947     56.7953
#   30      0.1183     58.9091
#   31      1.3941     61.0450
#   32      0.0929     63.2045
#   33      1.1268     65.3893
#   34      0.0723     67.6012
#   35      0.9365     69.8419
#   36      0.0552     72.1135
#   37      0.8006     74.4184
#   38      0.0412     76.7590
#   39      0.7087     79.1380
#   40      0.0292     81.5586
#   41      0.6064     84.0240
#   42      0.0193     86.5381
#   43      0.4337     89.1052
#   44      0.0123     91.7302
#   45      0.2712     94.4186
#   46      0.0078     97.1770
#   47      0.1864    100.0128
#   48      0.0048    102.9348
#   49      0.1302    105.9535
#   50      0.0028    109.0815
#   51      0.0786    112.3343
#   52      0.0016    115.7312
#   53      0.0515    119.2965
#   54      0.0008    123.0622
#   55      0.0369    127.0715
#   56      0.0003    131.3849
#   57      0.0202    136.0923
#   58      0.0001    141.3379
#   59      0.0082    147.3806
#   60      0.0000    154.7879
#   61      0.0046    165.5225
   0    1.78709E+02    1.0000000000000000
   1    1.62862E+02    0.9113250230030280
   2    1.42804E+02    0.7990844687492656
   3    1.26352E+02    0.7070237993039478
   4    1.13668E+02    0.6360486582606729
   5    1.03026E+02    0.5764990003102740
   6    9.40165E+01    0.5260856624378943
   7    8.68027E+01    0.4857196795825593
   8    8.10881E+01    0.4537426411793223
   9    7.62111E+01    0.4264525182648189
  10    7.19317E+01    0.4025062163842328
  11    6.82491E+01    0.3818998203262854
  12    6.51058E+01    0.3643107524284749
  13    6.22817E+01    0.3485081974060399
  14    5.96666E+01    0.3338751349123777
  15    5.72952E+01    0.3206053322445811
  16    5.52210E+01    0.3089989719694911
  17    5.32964E+01    0.2982293469456582
  18    5.14805E+01    0.2880680956742623
  19    4.97836E+01    0.2785728241359554
  20    4.82497E+01    0.2699894865380914
  21    4.67807E+01    0.2617694443869819
  22    4.54188E+01    0.2541486487639439
  23    4.41039E+01    0.2467910462035341
  24    4.29032E+01    0.2400722267326424
  25    4.17059E+01    0.2333728723509409
  26    4.06244E+01    0.2273211535363749
  27    3.95367E+01    0.2212344173560260
  28    3.85685E+01    0.2158168887776305
  29    3.75568E+01    0.2101556544734174
  30    3.66612E+01    0.2051440820632601
  31    3.57239E+01    0.1998991581340862
  32    3.49330E+01    0.1954740211038434
  33    3.40779E+01    0.1906888277133757
  34    3.33839E+01    0.1868052106651709
  35    3.25440E+01    0.1821054318146171
  36    3.19103E+01    0.1785599353578984
  37    3.10578E+01    0.1737896602156317
  38    3.04824E+01    0.1705694295280979
  39    2.96507E+01    0.1659155843845179
  40    2.91567E+01    0.1631512650962569
  41    2.83209E+01    0.1584744449147827
  42    2.79826E+01    0.1565813723257246
  43    2.70476E+01    0.1513494542013131
  44    2.69186E+01    0.1506278849667526
  45    2.58750E+01    0.1447883566488283
  46    2.59048E+01    0.1449550497485220
  47    2.47310E+01    0.1383866447788658
  48    2.48595E+01    0.1391056811366522
  49    2.36454E+01    0.1323117598744674
  50    2.39892E+01    0.1342355781304161
  51    2.26534E+01    0.1267613154262609
  52    2.32653E+01    0.1301850188313561
  53    2.16635E+01    0.1212217704196758
  54    2.27216E+01    0.1271428333493478
  55    2.06976E+01    0.1158173269140724
  56    2.26277E+01    0.1266173606331620
  57    1.95598E+01    0.1094505471180508
  58    2.37101E+01    0.1326741227612668
  59    1.78593E+01    0.0999347690951690
  60    3.13418E+01    0.1753787924800661
