  # July 4, 2014 09:19:42
 # jmin,jmax    0   50
 # Eau     0.00200000
 # r0,ra,rb,rdel,tol,Bau,mu   3.5000  25.0000  25.0000   4.0000  1.0000E-03  3.0130E-07  6.8548E+03
 # parity bigJ  0  0        1  0        1  1        2  0        2  1        2  2        3  0        3  1        3  2        3  3
 # jmin,jmax,maxlamb are            0          50         100
 # j and jp are          32          47
 # lam  B-lambda(j,jp)  angle
#   15     46.3910      5.6437
#   16      3.3579     10.0070
#   17     19.0573     13.1514
#   18      2.0893     15.8226
#   19     11.1491     18.2314
#   20      1.7906     20.4720
#   21      7.3106     22.5960
#   22      1.5275     24.6347
#   23      5.2814     26.6092
#   24      1.2393     28.5341
#   25      4.0067     30.4201
#   26      0.9825     32.2754
#   27      3.2099     34.1064
#   28      0.7650     35.9180
#   29      2.4959     37.7145
#   30      0.5767     39.4993
#   31      1.9990     41.2754
#   32      0.4165     43.0452
#   33      1.5940     44.8110
#   34      0.2871     46.5748
#   35      1.0866     48.3383
#   36      0.1874     50.1032
#   37      0.7078     51.8709
#   38      0.1113     53.6429
#   39      0.5047     55.4206
#   40      0.0573     57.2052
#   41      0.3713     58.9979
#   42      0.0270     60.8001
#   43      0.2918     62.6130
#   44      0.0137     64.4377
#   45      0.2124     66.2756
#   46      0.0080     68.1280
#   47      0.1179     69.9961
#   48      0.0050     71.8814
#   49      0.0608     73.7852
#   50      0.0030     75.7091
#   51      0.0390     77.6547
#   52      0.0014     79.6237
#   53      0.0220     81.6179
#   54      0.0005     83.6392
#   55      0.0085     85.6899
#   56      0.0002     87.7722
#   57      0.0027     89.8886
#   58      0.0001     92.0421
#   59      0.0010     94.2357
#   60      0.0000     96.4728
#   61      0.0004     98.7575
#   62      0.0000    101.0942
#   63      0.0001    103.4878
#   64      0.0000    105.9444
#   65      0.0000    108.4705
#   66      0.0000    111.0742
#   67      0.0000    113.7649
#   68      0.0000    116.5540
#   69      0.0000    119.4554
#   70      0.0000    122.4863
#   71      0.0000    125.6687
#   72      0.0000    129.0313
#   73      0.0000    132.6128
#   74      0.0000    136.4675
#   75      0.0000    140.6761
#   76      0.0000    145.3676
#   77      0.0000    150.7742
#   78      0.0000    157.4040
#   79      0.0000    167.0128
   0    6.02556E+01    1.0000000000000000
   1    5.45988E+01    0.9061192487165165
   2    4.54575E+01    0.7544113360936635
   3    3.57906E+01    0.5939798683760983
   4    2.77488E+01    0.4605187358956798
   5    2.20191E+01    0.3654277152782682
   6    1.82234E+01    0.3024347831682702
   7    1.56665E+01    0.2600012099544638
   8    1.37948E+01    0.2289378280328369
   9    1.22773E+01    0.2037539902069875
  10    1.09414E+01    0.1815827074438542
  11    9.72449E+00    0.1613872317591332
  12    8.64399E+00    0.1434554061710058
  13    7.74776E+00    0.1285814765096196
  14    7.05755E+00    0.1171268654839739
  15    6.54008E+00    0.1085389071403760
  16    6.12110E+00    0.1015856047801725
  17    5.72997E+00    0.0950943272186910
  18    5.34154E+00    0.0886479601437175
  19    4.98052E+00    0.0826565516049009
  20    4.68303E+00    0.0777194300559349
  21    4.45405E+00    0.0739192777432977
  22    4.26439E+00    0.0707716184976426
  23    4.08318E+00    0.0677643527415224
  24    3.90226E+00    0.0647617595942079
  25    3.72851E+00    0.0618782619612830
  26    3.56597E+00    0.0591807307757328
  27    3.41431E+00    0.0566638106582345
  28    3.27769E+00    0.0543964589350546
  29    3.16299E+00    0.0524928089636860
  30    3.06800E+00    0.0509164008309532
  31    2.97843E+00    0.0494299706738555
  32    2.88005E+00    0.0477971706474257
  33    2.77137E+00    0.0459936290981973
  34    2.66287E+00    0.0441929157285509
  35    2.56572E+00    0.0425805255571749
  36    2.48310E+00    0.0412094373825303
  37    2.41053E+00    0.0400049876947947
  38    2.34134E+00    0.0388568383429804
  39    2.27115E+00    0.0376919057065325
  40    2.19862E+00    0.0364882444322324
  41    2.12420E+00    0.0352531512681960
  42    2.04872E+00    0.0340004249340042
  43    1.97277E+00    0.0327400435677535
  44    1.89677E+00    0.0314786433856046
  45    1.82112E+00    0.0302232899824343
  46    1.74644E+00    0.0289837890936723
  47    1.67363E+00    0.0277755156322487
  48    1.60364E+00    0.0266139413821984
  49    1.53692E+00    0.0255067322134197
  50    1.47531E+00    0.0244842205200726
  51    1.41428E+00    0.0234713128227337
  52    1.35517E+00    0.0224904160910498
  53    1.29607E+00    0.0215094493398556
  54    1.22673E+00    0.0203587910360475
  55    1.14203E+00    0.0189530928904946
  56    1.10938E+00    0.0184112775028509
  57    1.06267E+00    0.0176360679635212
  58    1.05775E+00    0.0175544268118470
  59    9.91155E-01    0.0164491632147486
  60    1.01916E+00    0.0169138975617049
  61    8.18424E-01    0.0135825362348782
  62    1.06739E+00    0.0177144203651129
  63    8.17600E-01    0.0135688651169016
  64    1.37590E+00    0.0228343844858981
