  # July 4, 2014 09:19:42
 # jmin,jmax    0   50
 # Eau     0.00200000
 # r0,ra,rb,rdel,tol,Bau,mu   3.5000  25.0000  25.0000   4.0000  1.0000E-03  3.0130E-07  6.8548E+03
 # parity bigJ  0  0        1  0        1  1        2  0        2  1        2  2        3  0        3  1        3  2        3  3
 # jmin,jmax,maxlamb are            0          50         100
 # j and jp are          17          39
 # lam  B-lambda(j,jp)  angle
#   22      8.5434     10.1967
#   23      0.2387     18.0260
#   24      3.2866     23.6262
#   25      0.1405     28.3582
#   26      2.1579     32.6094
#   27      0.0754     36.5550
#   28      1.5483     40.2919
#   29      0.0466     43.8806
#   30      1.0786     47.3619
#   31      0.0360     50.7654
#   32      0.8431     54.1135
#   33      0.0294     57.4240
#   34      0.7077     60.7115
#   35      0.0232     63.9886
#   36      0.5240     67.2665
#   37      0.0183     70.5555
#   38      0.3842     73.8655
#   39      0.0145     77.2060
#   40      0.3179     80.5869
#   41      0.0111     84.0183
#   42      0.2779     87.5114
#   43      0.0081     91.0781
#   44      0.2325     94.7323
#   45      0.0057     98.4897
#   46      0.1730    102.3692
#   47      0.0038    106.3937
#   48      0.1320    110.5919
#   49      0.0023    115.0007
#   50      0.1225    119.6696
#   51      0.0012    124.6675
#   52      0.1064    130.0964
#   53      0.0005    136.1194
#   54      0.0728    143.0293
#   55      0.0001    151.4677
#   56      0.0598    163.6583
   0    2.20448E+01    1.0000000000000000
   1    1.53757E+01    0.6974749597170308
   2    1.04538E+01    0.4742076137214667
   3    7.44402E+00    0.3376774041298251
   4    5.71481E+00    0.2592365539406095
   5    4.54233E+00    0.2060499916929902
   6    3.84889E+00    0.1745944440202434
   7    3.23827E+00    0.1468952303213907
   8    2.90262E+00    0.1316694007113708
   9    2.46306E+00    0.1117301054467729
  10    2.27581E+00    0.1032358023879702
  11    2.04935E+00    0.0929632622878329
  12    1.91475E+00    0.0868571593620873
  13    1.62692E+00    0.0738007930173554
  14    1.52134E+00    0.0690113775280602
  15    1.31114E+00    0.0594760066019966
  16    1.30600E+00    0.0592431472066352
  17    1.13998E+00    0.0517122279135069
  18    1.16893E+00    0.0530251258344835
  19    9.79918E-01    0.0444512841224469
  20    1.02961E+00    0.0467054603974704
  21    8.46272E-01    0.0383887914679662
  22    9.30881E-01    0.0422268284879321
  23    7.58500E-01    0.0344072509738644
  24    8.57936E-01    0.0389178960250905
  25    6.94020E-01    0.0314822915621767
  26    8.12658E-01    0.0368639847060194
  27    6.38757E-01    0.0289754520480580
  28    8.03939E-01    0.0364684658488627
  29    5.69063E-01    0.0258139708877801
  30    7.83910E-01    0.0355599084404510
  31    4.40067E-01    0.0199624327885778
  32    7.52287E-01    0.0341254337709990
  33    3.83134E-01    0.0173798259576413
  34    9.66223E-01    0.0438300086032637
