  # July 4, 2014 09:19:42
 # jmin,jmax    0   50
 # Eau     0.00200000
 # r0,ra,rb,rdel,tol,Bau,mu   3.5000  25.0000  25.0000   4.0000  1.0000E-03  3.0130E-07  6.8548E+03
 # parity bigJ  0  0        1  0        1  1        2  0        2  1        2  2        3  0        3  1        3  2        3  3
 # jmin,jmax,maxlamb are            0          50         100
 # j and jp are          22          42
 # lam  B-lambda(j,jp)  angle
#   20     13.2789      8.2729
#   21      1.0874     14.6189
#   22      5.3172     19.1588
#   23      0.6609     22.9930
#   24      3.4807     26.4342
#   25      0.4763     29.6233
#   26      2.5319     32.6379
#   27      0.3459     35.5260
#   28      1.8971     38.3198
#   29      0.2566     41.0423
#   30      1.4769     43.7103
#   31      0.1899     46.3371
#   32      1.2498     48.9331
#   33      0.1347     51.5070
#   34      0.9599     54.0661
#   35      0.0883     56.6166
#   36      0.6295     59.1641
#   37      0.0544     61.7139
#   38      0.4435     64.2704
#   39      0.0347     66.8383
#   40      0.3505     69.4219
#   41      0.0238     72.0255
#   42      0.2749     74.6533
#   43      0.0158     77.3099
#   44      0.2054     79.9999
#   45      0.0099     82.7282
#   46      0.1494     85.5002
#   47      0.0063     88.3215
#   48      0.1235     91.1988
#   49      0.0039     94.1392
#   50      0.1051     97.1509
#   51      0.0020    100.2436
#   52      0.0683    103.4284
#   53      0.0009    106.7187
#   54      0.0325    110.1306
#   55      0.0003    113.6842
#   56      0.0147    117.4049
#   57      0.0001    121.3257
#   58      0.0072    125.4910
#   59      0.0000    129.9631
#   60      0.0029    134.8344
#   61      0.0000    140.2526
#   62      0.0008    146.4836
#   63      0.0000    154.1096
#   64      0.0002    165.1455
   0    2.92732E+01    1.0000000000000000
   1    2.37454E+01    0.8111672251467230
   2    1.68580E+01    0.5758860809668455
   3    1.17417E+01    0.4011081157426942
   4    8.57588E+00    0.2929602373152955
   5    6.65586E+00    0.2273705557391971
   6    5.56724E+00    0.1901821963331655
   7    4.89913E+00    0.1673589218821232
   8    4.29786E+00    0.1468191534401453
   9    3.71743E+00    0.1269909255225509
  10    3.24516E+00    0.1108578903581899
  11    2.87794E+00    0.0983133380972142
  12    2.60389E+00    0.0889515289231967
  13    2.42637E+00    0.0828870972905488
  14    2.27698E+00    0.0777836886315777
  15    2.07753E+00    0.0709705245297455
  16    1.85858E+00    0.0634909000346276
  17    1.68464E+00    0.0575487749328881
  18    1.57042E+00    0.0536472211269957
  19    1.48756E+00    0.0508163816850842
  20    1.41978E+00    0.0485010830621608
  21    1.34477E+00    0.0459386191506809
  22    1.26551E+00    0.0432312053639376
  23    1.18199E+00    0.0403778454049483
  24    1.12148E+00    0.0383108476025275
  25    1.06716E+00    0.0364553679686082
  26    1.03310E+00    0.0352917989095761
  27    9.85602E-01    0.0336691044564621
  28    9.55920E-01    0.0326551424064860
  29    9.07332E-01    0.0309953262720400
  30    8.86165E-01    0.0302722401967277
  31    8.37389E-01    0.0286060255647168
  32    8.33142E-01    0.0284609396443937
  33    7.69939E-01    0.0263018569288382
  34    8.01637E-01    0.0273847091538991
  35    7.06795E-01    0.0241448099999803
  36    7.86712E-01    0.0268748378970184
  37    6.65776E-01    0.0227435569202504
  38    7.58798E-01    0.0259212699041856
  39    5.94467E-01    0.0203075615788512
  40    7.04199E-01    0.0240561087009090
  41    5.17458E-01    0.0176768699706560
  42    8.00030E-01    0.0273298029380677
  43    5.32477E-01    0.0181899242506405
  44    1.00602E+00    0.0343664842884249
