  # July 4, 2014 09:19:42
 # jmin,jmax    0   50
 # Eau     0.00200000
 # r0,ra,rb,rdel,tol,Bau,mu   3.5000  25.0000  25.0000   4.0000  1.0000E-03  3.0130E-07  6.8548E+03
 # parity bigJ  0  0        1  0        1  1        2  0        2  1        2  2        3  0        3  1        3  2        3  3
 # jmin,jmax,maxlamb are            0          50         100
 # j and jp are          23          26
 # lam  B-lambda(j,jp)  angle
#    3    290.5863      3.9759
#    4      2.0920      7.6208
#    5     90.0801     10.5375
#    6      1.3877     13.2206
#    7     48.4028     15.7929
#    8      0.9604     18.3046
#    9     29.7505     20.7811
#   10      0.7205     23.2374
#   11     20.1073     25.6828
#   12      0.5382     28.1239
#   13     13.9657     30.5657
#   14      0.4095     33.0120
#   15      9.9044     35.4660
#   16      0.3274     37.9305
#   17      7.1997     40.4080
#   18      0.2593     42.9009
#   19      5.3653     45.4115
#   20      0.2035     47.9421
#   21      4.1052     50.4949
#   22      0.1620     53.0724
#   23      3.1365     55.6770
#   24      0.1285     58.3114
#   25      2.4791     60.9782
#   26      0.1011     63.6806
#   27      1.9663     66.4217
#   28      0.0793     69.2053
#   29      1.5909     72.0351
#   30      0.0622     74.9156
#   31      1.3434     77.8517
#   32      0.0484     80.8490
#   33      1.1262     83.9138
#   34      0.0372     87.0534
#   35      0.9609     90.2761
#   36      0.0281     93.5920
#   37      0.8540     97.0127
#   38      0.0207    100.5523
#   39      0.7826    104.2282
#   40      0.0145    108.0617
#   41      0.7365    112.0802
#   42      0.0094    116.3194
#   43      0.6426    120.8272
#   44      0.0055    125.6713
#   45      0.4826    130.9518
#   46      0.0030    136.8294
#   47      0.3808    143.5930
#   48      0.0014    151.8761
#   49      0.5128    163.8724
   0    1.47074E+02    1.0000000000000000
   1    1.17293E+02    0.7975066399871715
   2    9.64595E+01    0.6558558246758555
   3    7.93885E+01    0.5397850865954957
   4    6.71707E+01    0.4567132289485000
   5    5.66584E+01    0.3852368898693515
   6    5.02011E+01    0.3413318644468608
   7    4.37553E+01    0.2975048256263176
   8    3.97054E+01    0.2699686375037598
   9    3.56032E+01    0.2420768008455958
  10    3.29139E+01    0.2237912944601890
  11    2.99077E+01    0.2033510221019612
  12    2.81158E+01    0.1911677538310363
  13    2.57961E+01    0.1753950266096863
  14    2.44714E+01    0.1663880743749456
  15    2.25757E+01    0.1534986874354125
  16    2.16011E+01    0.1468722125265687
  17    2.00113E+01    0.1360629261666020
  18    1.93387E+01    0.1314894233402734
  19    1.79285E+01    0.1219009496737281
  20    1.75243E+01    0.1191528155912425
  21    1.62515E+01    0.1104984528522104
  22    1.60823E+01    0.1093479687608145
  23    1.48356E+01    0.1008717867460447
  24    1.48469E+01    0.1009485760142307
  25    1.36348E+01    0.0927072532023676
  26    1.38056E+01    0.0938684381838906
  27    1.26181E+01    0.0857939067384780
  28    1.28767E+01    0.0875524651835124
  29    1.17046E+01    0.0795831665318097
  30    1.20599E+01    0.0819990233351444
  31    1.09159E+01    0.0742203361435568
  32    1.13880E+01    0.0774306162918271
  33    1.02612E+01    0.0697690152720034
  34    1.08528E+01    0.0737911222018491
  35    9.67468E+00    0.0657809759565323
  36    1.04934E+01    0.0713477952812501
  37    9.22395E+00    0.0627162818193502
  38    1.02727E+01    0.0698470238613852
  39    8.80637E+00    0.0598770759204266
  40    1.02199E+01    0.0694879705542252
  41    8.38437E+00    0.0570077863798618
  42    1.04127E+01    0.0707992357096919
  43    7.80898E+00    0.0530954968366310
  44    1.12112E+01    0.0762281659270714
  45    6.93733E+00    0.0471689500409922
  46    1.50987E+01    0.1026605032891890
