  # July 4, 2014 09:19:42
 # jmin,jmax    0   50
 # Eau     0.00200000
 # r0,ra,rb,rdel,tol,Bau,mu   3.5000  25.0000  25.0000   4.0000  1.0000E-03  3.0130E-07  6.8548E+03
 # parity bigJ  0  0        1  0        1  1        2  0        2  1        2  2        3  0        3  1        3  2        3  3
 # jmin,jmax,maxlamb are            0          50         100
 # j and jp are          25          46
 # lam  B-lambda(j,jp)  angle
#   21     21.8926      7.6146
#   22      1.3084     13.4376
#   23      8.9983     17.5941
#   24      0.9847     21.0964
#   25      5.7270     24.2325
#   26      0.6525     27.1324
#   27      4.1222     29.8676
#   28      0.4714     32.4821
#   29      3.1970     35.0056
#   30      0.3509     37.4590
#   31      2.3522     39.8577
#   32      0.2583     42.2136
#   33      1.6234     44.5362
#   34      0.1871     46.8331
#   35      1.1641     49.1105
#   36      0.1313     51.3740
#   37      0.9392     53.6282
#   38      0.0887     55.8773
#   39      0.7214     58.1250
#   40      0.0559     60.3747
#   41      0.4423     62.6297
#   42      0.0314     64.8930
#   43      0.2750     67.1676
#   44      0.0161     69.4564
#   45      0.2237     71.7623
#   46      0.0085     74.0882
#   47      0.1556     76.4373
#   48      0.0048     78.8126
#   49      0.0793     81.2175
#   50      0.0028     83.6555
#   51      0.0448     86.1305
#   52      0.0014     88.6466
#   53      0.0299     91.2084
#   54      0.0006     93.8211
#   55      0.0147     96.4904
#   56      0.0002     99.2229
#   57      0.0049    102.0262
#   58      0.0001    104.9091
#   59      0.0016    107.8819
#   60      0.0000    110.9571
#   61      0.0006    114.1500
#   62      0.0000    117.4792
#   63      0.0002    120.9688
#   64      0.0000    124.6498
#   65      0.0000    128.5641
#   66      0.0000    132.7706
#   67      0.0000    137.3565
#   68      0.0000    142.4616
#   69      0.0000    148.3371
#   70      0.0000    155.5330
#   71      0.0000    165.9520
   0    4.20972E+01    1.0000000000000000
   1    3.65324E+01    0.8678100798911386
   2    2.82353E+01    0.6707151461905623
   3    2.05003E+01    0.4869738306118048
   4    1.49718E+01    0.3556475192415990
   5    1.15387E+01    0.2740971417066864
   6    9.43452E+00    0.2241125330050763
   7    8.04343E+00    0.1910679088923020
   8    7.03569E+00    0.1671295147016562
   9    6.25227E+00    0.1485196368981006
  10    5.61927E+00    0.1334831617393228
  11    5.09620E+00    0.1210577324899399
  12    4.64613E+00    0.1103666652743655
  13    4.23642E+00    0.1006341334006023
  14    3.85002E+00    0.0914554072055026
  15    3.49684E+00    0.0830658337476250
  16    3.21609E+00    0.0763967880806573
  17    3.03862E+00    0.0721808700828232
  18    2.93192E+00    0.0696464911154885
  19    2.81430E+00    0.0668523016050720
  20    2.64067E+00    0.0627278209791141
  21    2.44485E+00    0.0580763637332241
  22    2.28305E+00    0.0542328463808413
  23    2.16636E+00    0.0514609571953249
  24    2.06669E+00    0.0490931746732159
  25    1.96351E+00    0.0466423420181522
  26    1.86158E+00    0.0442210483187605
  27    1.77239E+00    0.0421023826885666
  28    1.69765E+00    0.0403267934376324
  29    1.63111E+00    0.0387462285933417
  30    1.56783E+00    0.0372429493123710
  31    1.50629E+00    0.0357811324199003
  32    1.44769E+00    0.0343892105264814
  33    1.39159E+00    0.0330566646058506
  34    1.33928E+00    0.0318138933539768
  35    1.28863E+00    0.0306108496347416
  36    1.24265E+00    0.0295184606979444
  37    1.19865E+00    0.0284734525444423
  38    1.16083E+00    0.0275749004842052
  39    1.12702E+00    0.0267719277283624
  40    1.10203E+00    0.0261782699684162
  41    1.07237E+00    0.0254737289084998
  42    1.07369E+00    0.0255048925704714
  43    1.02609E+00    0.0243743002106026
  44    1.03623E+00    0.0246150938346029
  45    1.01318E+00    0.0240675827160219
  46    1.02436E+00    0.0243331781692673
  47    8.22015E-01    0.0195265688835506
  48    8.95799E-01    0.0212792891119428
  49    6.67839E-01    0.0158641996045873
  50    1.06695E+00    0.0253449618822218
