  # July 4, 2014 09:19:42
 # jmin,jmax    0   50
 # Eau     0.00200000
 # r0,ra,rb,rdel,tol,Bau,mu   3.5000  25.0000  25.0000   4.0000  1.0000E-03  3.0130E-07  6.8548E+03
 # parity bigJ  0  0        1  0        1  1        2  0        2  1        2  2        3  0        3  1        3  2        3  3
 # jmin,jmax,maxlamb are            0          50         100
 # j and jp are          22          23
 # lam  B-lambda(j,jp)  angle
#    1    944.0011      2.4919
#    2      2.9308      5.5749
#    3    165.0939      8.2730
#    4      1.6505     10.8799
#    5     72.2882     13.4522
#    6      1.0808     16.0105
#    7     42.0947     18.5644
#    8      0.7212     21.1198
#    9     26.7884     23.6804
#   10      0.5398     26.2493
#   11     18.2071     28.8288
#   12      0.4179     31.4211
#   13     12.8142     34.0283
#   14      0.3179     36.6525
#   15      9.2372     39.2956
#   16      0.2507     41.9598
#   17      6.7805     44.6472
#   18      0.2015     47.3600
#   19      5.0593     50.1008
#   20      0.1597     52.8722
#   21      3.8890     55.6768
#   22      0.1259     58.5178
#   23      3.0031     61.3986
#   24      0.0995     64.3227
#   25      2.3926     67.2943
#   26      0.0783     70.3178
#   27      1.9231     73.3984
#   28      0.0612     76.5419
#   29      1.5702     79.7548
#   30      0.0475     83.0446
#   31      1.3433     86.4201
#   32      0.0365     89.8916
#   33      1.1498     93.4713
#   34      0.0276     97.1739
#   35      1.0031    101.0174
#   36      0.0205    105.0240
#   37      0.9203    109.2223
#   38      0.0146    113.6492
#   39      0.8831    118.3547
#   40      0.0097    123.4092
#   41      0.8998    128.9170
#   42      0.0057    135.0451
#   43      0.9408    142.0946
#   44      0.0026    150.7247
#   45      1.2157    163.2213
   0    1.91679E+02    1.0000000000000000
   1    1.53348E+02    0.8000223348646033
   2    1.34073E+02    0.6994666311714324
   3    1.13457E+02    0.5919085751331143
   4    1.01648E+02    0.5303031279147776
   5    8.99409E+01    0.4692254879353999
   6    8.33551E+01    0.4348669192727249
   7    7.57798E+01    0.3953464998861660
   8    7.18384E+01    0.3747839935795670
   9    6.63428E+01    0.3461131270127597
  10    6.36829E+01    0.3322365763402851
  11    5.93901E+01    0.3098405741322962
  12    5.74776E+01    0.2998633035493743
  13    5.38736E+01    0.2810607436485434
  14    5.24506E+01    0.2736368589806545
  15    4.93509E+01    0.2574655483712747
  16    4.82917E+01    0.2519396853947006
  17    4.55164E+01    0.2374607647811894
  18    4.47124E+01    0.2332662723652476
  19    4.22206E+01    0.2202668240781521
  20    4.15967E+01    0.2170115769165795
  21    3.92851E+01    0.2049520443281660
  22    3.88106E+01    0.2024766149744695
  23    3.66753E+01    0.1913367390982350
  24    3.63503E+01    0.1896408524408295
  25    3.43225E+01    0.1790619450983059
  26    3.41233E+01    0.1780225222458838
  27    3.21885E+01    0.1679289839377185
  28    3.21502E+01    0.1677290457597894
  29    3.02734E+01    0.1579373806599725
  30    3.04402E+01    0.1588080764788729
  31    2.85246E+01    0.1488139854508153
  32    2.89081E+01    0.1508150075428881
  33    2.69463E+01    0.1405802094883170
  34    2.75918E+01    0.1439477419371706
  35    2.54331E+01    0.1326853786313550
  36    2.64413E+01    0.1379451546189670
  37    2.39257E+01    0.1248212593700399
  38    2.55345E+01    0.1332146219521278
  39    2.23399E+01    0.1165484291239215
  40    2.50558E+01    0.1307171806063334
  41    2.05258E+01    0.1070838227163841
  42    2.59127E+01    0.1351876913790479
  43    1.78233E+01    0.0929847674756275
  44    3.36870E+01    0.1757466251035587
