  # July 4, 2014 09:19:42
 # jmin,jmax    0   50
 # Eau     0.00200000
 # r0,ra,rb,rdel,tol,Bau,mu   3.5000  25.0000  25.0000   4.0000  1.0000E-03  3.0130E-07  6.8548E+03
 # parity bigJ  0  0        1  0        1  1        2  0        2  1        2  2        3  0        3  1        3  2        3  3
 # jmin,jmax,maxlamb are            0          50         100
 # j and jp are          15          48
 # lam  B-lambda(j,jp)  angle
#   33      6.1931     11.9635
#   34      0.0187     21.0885
#   35      2.8253     27.5706
#   36      0.0170     33.0153
#   37      1.8872     37.8818
#   38      0.0129     42.3791
#   39      1.3393     46.6233
#   40      0.0090     50.6873
#   41      0.9378     54.6210
#   42      0.0061     58.4609
#   43      0.6448     62.2349
#   44      0.0043     65.9657
#   45      0.4232     69.6723
#   46      0.0029     73.3716
#   47      0.2397     77.0790
#   48      0.0017     80.8094
#   49      0.1193     84.5774
#   50      0.0010     88.3983
#   51      0.0668     92.2884
#   52      0.0006     96.2658
#   53      0.0412    100.3514
#   54      0.0003    104.5697
#   55      0.0203    108.9512
#   56      0.0001    113.5343
#   57      0.0073    118.3701
#   58      0.0000    123.5292
#   59      0.0025    129.1159
#   60      0.0000    135.2960
#   61      0.0011    142.3672
#   62      0.0000    150.9814
#   63      0.0007    163.3985
   0    1.98889E+01    1.0000000000000000
   1    1.56884E+01    0.7888007474985210
   2    1.03247E+01    0.5191184434224649
   3    6.43073E+00    0.3233327674596158
   4    4.46143E+00    0.2243178195838326
   5    3.62227E+00    0.1821254390865934
   6    3.16948E+00    0.1593594371270368
   7    2.77227E+00    0.1393879823442161
   8    2.41634E+00    0.1214920247062714
   9    2.15996E+00    0.1086014364508495
  10    1.97983E+00    0.0995444184765452
  11    1.80687E+00    0.0908484640882744
  12    1.64350E+00    0.0826340920189201
  13    1.51514E+00    0.0761800431714363
  14    1.42178E+00    0.0714859676763039
  15    1.33574E+00    0.0671599534333000
  16    1.25548E+00    0.0631248643709131
  17    1.18010E+00    0.0593346168597394
  18    1.11857E+00    0.0562408043029027
  19    1.06029E+00    0.0533105685775779
  20    1.01244E+00    0.0509048027525352
  21    9.62088E-01    0.0483731895062099
  22    9.24839E-01    0.0465003206834502
  23    8.77181E-01    0.0441040974197812
  24    8.53874E-01    0.0429322098977713
  25    7.96455E-01    0.0400452623488744
  26    7.95293E-01    0.0399867992383711
  27    7.03812E-01    0.0353872028046011
  28    7.23040E-01    0.0363539789259576
  29    6.11781E-01    0.0307599689373269
  30    7.66285E-01    0.0385283326184537
