  # July 4, 2014 09:19:42
 # jmin,jmax    0   50
 # Eau     0.00200000
 # r0,ra,rb,rdel,tol,Bau,mu   3.5000  25.0000  25.0000   4.0000  1.0000E-03  3.0130E-07  6.8548E+03
 # parity bigJ  0  0        1  0        1  1        2  0        2  1        2  2        3  0        3  1        3  2        3  3
 # jmin,jmax,maxlamb are            0          50         100
 # j and jp are          19          47
 # lam  B-lambda(j,jp)  angle
#   28      6.1541      9.9384
#   29      0.0720     17.5084
#   30      2.7321     22.8873
#   31      0.0499     27.4031
#   32      1.8696     31.4353
#   33      0.0415     35.1559
#   34      1.3383     38.6600
#   35      0.0315     42.0068
#   36      0.9168     45.2363
#   37      0.0226     48.3773
#   38      0.6258     51.4512
#   39      0.0163     54.4749
#   40      0.4435     57.4620
#   41      0.0121     60.4240
#   42      0.3180     63.3708
#   43      0.0085     66.3109
#   44      0.2273     69.2524
#   45      0.0055     72.2027
#   46      0.1855     75.1690
#   47      0.0036     78.1584
#   48      0.1633     81.1780
#   49      0.0022     84.2353
#   50      0.1163     87.3381
#   51      0.0011     90.4951
#   52      0.0597     93.7155
#   53      0.0005     97.0101
#   54      0.0252    100.3911
#   55      0.0002    103.8729
#   56      0.0112    107.4726
#   57      0.0001    111.2115
#   58      0.0048    115.1161
#   59      0.0000    119.2208
#   60      0.0015    123.5716
#   61      0.0000    128.2330
#   62      0.0003    133.3004
#   63      0.0000    138.9264
#   64      0.0001    145.3851
#   65      0.0000    153.2770
#   66      0.0000    164.6817
   0    1.64929E+01    1.0000000000000000
   1    1.33076E+01    0.8068659688965665
   2    9.24542E+00    0.5605679484413066
   3    6.26539E+00    0.3798829385098817
   4    4.54314E+00    0.2754595310147331
   5    3.47054E+00    0.2104259622170078
   6    2.76788E+00    0.1678217821320401
   7    2.40418E+00    0.1457699992790303
   8    2.22799E+00    0.1350877125291154
   9    2.04550E+00    0.1240227760598024
  10    1.82874E+00    0.1108798414357619
  11    1.65382E+00    0.1002746139690090
  12    1.53002E+00    0.0927683734990150
  13    1.40517E+00    0.0851980850293738
  14    1.27329E+00    0.0772023671117536
  15    1.17103E+00    0.0710021389179571
  16    1.10574E+00    0.0670431232577840
  17    1.05093E+00    0.0637202424294569
  18    9.92422E-01    0.0601725131694952
  19    9.36511E-01    0.0567825020492766
  20    8.89971E-01    0.0539606726276505
  21    8.49863E-01    0.0515288569936658
  22    8.13306E-01    0.0493123547329313
  23    7.78662E-01    0.0472118036444891
  24    7.48723E-01    0.0453965432088564
  25    7.20476E-01    0.0436838881429848
  26    6.98153E-01    0.0423304082619516
  27    6.72930E-01    0.0408010719618025
  28    6.56290E-01    0.0397921462789706
  29    6.28871E-01    0.0381296880666658
  30    6.15831E-01    0.0373390575902335
  31    5.81655E-01    0.0352669194365186
  32    5.69542E-01    0.0345324549560899
  33    5.21553E-01    0.0316227587479667
  34    5.26471E-01    0.0319209589293595
  35    4.05005E-01    0.0245562697177926
  36    5.15254E-01    0.0312408733156985
  37    2.87763E-01    0.0174476261581990
  38    5.26407E-01    0.0319170688556581
