  # July 4, 2014 09:19:42
 # jmin,jmax    0   50
 # Eau     0.00200000
 # r0,ra,rb,rdel,tol,Bau,mu   3.5000  25.0000  25.0000   4.0000  1.0000E-03  3.0130E-07  6.8548E+03
 # parity bigJ  0  0        1  0        1  1        2  0        2  1        2  2        3  0        3  1        3  2        3  3
 # jmin,jmax,maxlamb are            0          50         100
 # j and jp are          21          37
 # lam  B-lambda(j,jp)  angle
#   16     20.1230      8.0594
#   17      1.3402     14.2966
#   18      7.1274     18.7916
#   19      0.7573     22.6131
#   20      4.2256     26.0635
#   21      0.4105     29.2787
#   22      2.8952     32.3329
#   23      0.2098     35.2722
#   24      2.0077     38.1275
#   25      0.1113     40.9204
#   26      1.4887     43.6674
#   27      0.0735     46.3809
#   28      1.1891     49.0713
#   29      0.0579     51.7468
#   30      0.9345     54.4147
#   31      0.0472     57.0811
#   32      0.7861     59.7518
#   33      0.0382     62.4319
#   34      0.6801     65.1265
#   35      0.0309     67.8403
#   36      0.5095     70.5780
#   37      0.0249     73.3446
#   38      0.3776     76.1450
#   39      0.0197     78.9844
#   40      0.3160     81.8685
#   41      0.0152     84.8033
#   42      0.2758     87.7957
#   43      0.0113     90.8531
#   44      0.2295     93.9843
#   45      0.0079     97.1990
#   46      0.1707    100.5091
#   47      0.0052    103.9283
#   48      0.1294    107.4734
#   49      0.0032    111.1653
#   50      0.1174    115.0303
#   51      0.0017    119.1027
#   52      0.0979    123.4285
#   53      0.0007    128.0723
#   54      0.0609    133.1300
#   55      0.0003    138.7551
#   56      0.0335    145.2232
#   57      0.0001    153.1388
#   58      0.0287    164.5939
   0    3.45801E+01    1.0000000000000000
   1    2.70126E+01    0.7811592618347647
   2    2.00005E+01    0.5783807479173710
   3    1.54124E+01    0.4457005446776255
   4    1.23120E+01    0.3560430682777471
   5    1.00376E+01    0.2902719382330716
   6    8.38300E+00    0.2424227733833940
   7    6.98145E+00    0.2018921594167493
   8    5.99132E+00    0.1732592897464186
   9    5.17185E+00    0.1495615760712055
  10    4.62093E+00    0.1336297482407693
  11    4.18984E+00    0.1211635300632928
  12    3.82155E+00    0.1105130192074918
  13    3.39227E+00    0.0980989292510690
  14    3.10850E+00    0.0898927662116369
  15    2.83295E+00    0.0819243523069500
  16    2.63779E+00    0.0762807280844891
  17    2.38031E+00    0.0688346286292480
  18    2.21933E+00    0.0641794484955157
  19    2.01015E+00    0.0581304249855421
  20    1.94000E+00    0.0561015306644576
  21    1.77742E+00    0.0514001009581394
  22    1.73964E+00    0.0503074322629011
  23    1.54830E+00    0.0447743649970926
  24    1.53480E+00    0.0443838404404246
  25    1.34660E+00    0.0389413935443292
  26    1.37845E+00    0.0398626184460566
  27    1.19506E+00    0.0345590691109224
  28    1.24616E+00    0.0360368746320072
  29    1.06994E+00    0.0309408220068144
  30    1.13861E+00    0.0329267806680652
  31    9.67796E-01    0.0279871094773313
  32    1.06945E+00    0.0309266325856910
  33    8.73238E-01    0.0252526301578681
  34    1.03192E+00    0.0298415448741411
  35    7.95417E-01    0.0230021651868944
  36    1.01754E+00    0.0294256584666451
  37    6.92072E-01    0.0200135900424959
  38    9.51937E-01    0.0275284865193627
  39    6.18320E-01    0.0178808166957999
  40    1.00368E+00    0.0290248067420425
  41    4.33933E-01    0.0125486285577164
  42    1.30313E+00    0.0376843596981686
