  # July 4, 2014 09:19:42
 # jmin,jmax    0   50
 # Eau     0.00200000
 # r0,ra,rb,rdel,tol,Bau,mu   3.5000  25.0000  25.0000   4.0000  1.0000E-03  3.0130E-07  6.8548E+03
 # parity bigJ  0  0        1  0        1  1        2  0        2  1        2  2        3  0        3  1        3  2        3  3
 # jmin,jmax,maxlamb are            0          50         100
 # j and jp are          30          45
 # lam  B-lambda(j,jp)  angle
#   15     45.1621      5.9520
#   16      4.3547     10.5557
#   17     19.3574     13.8741
#   18      2.6643     16.6941
#   19     12.5889     19.2380
#   20      1.7738     21.6052
#   21      8.5769     23.8499
#   22      1.2247     26.0055
#   23      5.9201     28.0941
#   24      0.9291     30.1313
#   25      4.1782     32.1283
#   26      0.7106     34.0939
#   27      3.3796     36.0347
#   28      0.5222     37.9563
#   29      2.8541     39.8630
#   30      0.3588     41.7586
#   31      2.0724     43.6463
#   32      0.2305     45.5288
#   33      1.3917     47.4085
#   34      0.1415     49.2877
#   35      1.0974     51.1682
#   36      0.0854     53.0520
#   37      1.0243     54.9408
#   38      0.0535     56.8362
#   39      0.8487     58.7397
#   40      0.0367     60.6530
#   41      0.5278     62.5776
#   42      0.0261     64.5149
#   43      0.2911     66.4665
#   44      0.0172     68.4340
#   45      0.1901     70.4189
#   46      0.0103     72.4231
#   47      0.1171     74.4480
#   48      0.0059     76.4958
#   49      0.0611     78.5682
#   50      0.0034     80.6674
#   51      0.0395     82.7957
#   52      0.0017     84.9555
#   53      0.0263     87.1495
#   54      0.0007     89.3806
#   55      0.0118     91.6520
#   56      0.0002     93.9675
#   57      0.0037     96.3310
#   58      0.0001     98.7472
#   59      0.0012    101.2212
#   60      0.0000    103.7592
#   61      0.0005    106.3680
#   62      0.0000    109.0559
#   63      0.0001    111.8327
#   64      0.0000    114.7099
#   65      0.0000    117.7019
#   66      0.0000    120.8265
#   67      0.0000    124.1062
#   68      0.0000    127.5706
#   69      0.0000    131.2594
#   70      0.0000    135.2284
#   71      0.0000    139.5606
#   72      0.0000    144.3886
#   73      0.0000    149.9511
#   74      0.0000    156.7705
#   75      0.0000    166.6523
   0    6.56318E+01    1.0000000000000000
   1    5.86837E+01    0.8941356772330167
   2    4.78136E+01    0.7285124920449709
   3    3.68786E+01    0.5619016308028740
   4    2.82795E+01    0.4308809338359760
   5    2.23625E+01    0.3407261266413805
   6    1.83301E+01    0.2792863263336064
   7    1.53419E+01    0.2337569253333630
   8    1.29736E+01    0.1976722063741887
   9    1.11177E+01    0.1693953103129017
  10    9.73448E+00    0.1483194943609555
  11    8.70814E+00    0.1326816185879772
  12    7.86926E+00    0.1199001299845972
  13    7.10919E+00    0.1083192702463404
  14    6.44388E+00    0.0981821999657666
  15    5.95026E+00    0.0906611649387238
  16    5.65005E+00    0.0860871260566006
  17    5.46572E+00    0.0832785085389957
  18    5.27391E+00    0.0803559999244593
  19    4.98863E+00    0.0760093717422239
  20    4.61166E+00    0.0702656876601317
  21    4.22477E+00    0.0643707742880424
  22    3.92399E+00    0.0597878697280728
  23    3.74130E+00    0.0570043730965580
  24    3.62770E+00    0.0552735638966276
  25    3.51313E+00    0.0535277991364897
  26    3.37075E+00    0.0513584492151333
  27    3.21881E+00    0.0490434955471718
  28    3.07941E+00    0.0469194073472952
  29    2.95486E+00    0.0450217515611506
  30    2.83879E+00    0.0432531883671481
  31    2.73167E+00    0.0416210705910643
  32    2.63935E+00    0.0402144311334100
  33    2.56335E+00    0.0390565084716543
  34    2.49838E+00    0.0380665933352228
  35    2.43755E+00    0.0371397727491444
  36    2.37724E+00    0.0362207781890915
  37    2.31737E+00    0.0353085792474520
  38    2.25927E+00    0.0344233564994689
  39    2.20380E+00    0.0335782303165701
  40    2.15116E+00    0.0327761034075552
  41    2.10048E+00    0.0320040044257999
  42    2.05181E+00    0.0312623647995435
  43    2.00307E+00    0.0305197734882005
  44    1.95643E+00    0.0298091120600535
  45    1.90888E+00    0.0290846113272207
  46    1.86310E+00    0.0283871860927707
  47    1.82028E+00    0.0277347151132303
  48    1.77992E+00    0.0271197690021205
  49    1.72961E+00    0.0263532178003485
  50    1.70990E+00    0.0260529819214192
  51    1.63222E+00    0.0248694127354709
  52    1.57196E+00    0.0239511569573805
  53    1.46587E+00    0.0223346778763433
  54    1.42333E+00    0.0216866261761122
  55    1.21235E+00    0.0184719313205718
  56    1.22692E+00    0.0186940582067248
  57    1.17707E+00    0.0179344783001274
  58    1.54341E+00    0.0235162454829147
  59    8.90043E-01    0.0135611530657054
  60    1.88814E+00    0.0287686099626621
