  # July 4, 2014 09:19:42
 # jmin,jmax    0   50
 # Eau     0.00200000
 # r0,ra,rb,rdel,tol,Bau,mu   3.5000  25.0000  25.0000   4.0000  1.0000E-03  3.0130E-07  6.8548E+03
 # parity bigJ  0  0        1  0        1  1        2  0        2  1        2  2        3  0        3  1        3  2        3  3
 # jmin,jmax,maxlamb are            0          50         100
 # j and jp are          28          43
 # lam  B-lambda(j,jp)  angle
#   15     43.8861      6.2967
#   16      3.8683     11.1694
#   17     18.7096     14.6829
#   18      2.1884     17.6699
#   19     11.4084     20.3655
#   20      1.5760     22.8749
#   21      7.4621     25.2556
#   22      1.2008     27.5430
#   23      5.5336     29.7605
#   24      0.9097     31.9246
#   25      4.0556     34.0474
#   26      0.6634     36.1380
#   27      2.8660     38.2039
#   28      0.4533     40.2507
#   29      2.0299     42.2832
#   30      0.3013     44.3056
#   31      1.5440     46.3213
#   32      0.2064     48.3333
#   33      1.3115     50.3443
#   34      0.1452     52.3569
#   35      1.0643     54.3732
#   36      0.0991     56.3954
#   37      0.8223     58.4254
#   38      0.0623     60.4654
#   39      0.6797     62.5170
#   40      0.0362     64.5824
#   41      0.5172     66.6632
#   42      0.0214     68.7616
#   43      0.3307     70.8794
#   44      0.0138     73.0188
#   45      0.2141     75.1818
#   46      0.0089     77.3708
#   47      0.1390     79.5882
#   48      0.0054     81.8367
#   49      0.0761     84.1190
#   50      0.0033     86.4383
#   51      0.0445     88.7980
#   52      0.0018     91.2020
#   53      0.0305     93.6543
#   54      0.0008     96.1599
#   55      0.0159     98.7241
#   56      0.0003    101.3532
#   57      0.0055    104.0545
#   58      0.0001    106.8363
#   59      0.0017    109.7087
#   60      0.0000    112.6839
#   61      0.0007    115.7764
#   62      0.0000    119.0047
#   63      0.0002    122.3921
#   64      0.0000    125.9688
#   65      0.0001    129.7759
#   66      0.0000    133.8708
#   67      0.0000    138.3389
#   68      0.0000    143.3168
#   69      0.0000    149.0504
#   70      0.0000    156.0775
#   71      0.0000    166.2585
   0    6.41671E+01    1.0000000000000000
   1    5.67136E+01    0.8838418934890910
   2    4.55828E+01    0.7103755553064425
   3    3.50804E+01    0.5467034333193408
   4    2.72332E+01    0.4244109330471035
   5    2.17906E+01    0.3395914885016305
   6    1.78127E+01    0.2775988239623672
   7    1.47293E+01    0.2295452420192966
   8    1.23831E+01    0.1929814268689196
   9    1.07097E+01    0.1669037101166665
  10    9.54770E+00    0.1487942482456082
  11    8.66044E+00    0.1349668353628979
  12    7.86843E+00    0.1226239958820901
  13    7.12402E+00    0.1110229143913403
  14    6.45534E+00    0.1006019873925823
  15    5.88419E+00    0.0917009514802754
  16    5.41396E+00    0.0843727338489554
  17    5.04284E+00    0.0785890674193031
  18    4.75682E+00    0.0741317394496430
  19    4.53230E+00    0.0706327249960595
  20    4.34849E+00    0.0677681558943233
  21    4.17986E+00    0.0651401947123599
  22    3.99479E+00    0.0622559675673523
  23    3.78608E+00    0.0590033606137419
  24    3.58480E+00    0.0558666024111268
  25    3.42203E+00    0.0533298915990383
  26    3.29167E+00    0.0512984319532782
  27    3.16612E+00    0.0493417103052975
  28    3.03431E+00    0.0472875538511588
  29    2.90862E+00    0.0453287680123705
  30    2.80344E+00    0.0436897141327342
  31    2.71905E+00    0.0423745128861042
  32    2.64682E+00    0.0412487942928512
  33    2.57774E+00    0.0401723503739988
  34    2.50926E+00    0.0391049961457568
  35    2.43927E+00    0.0380142456758984
  36    2.36976E+00    0.0369309844339036
  37    2.29756E+00    0.0358058142558357
  38    2.22496E+00    0.0346743711677363
  39    2.14827E+00    0.0334792692025268
  40    2.07027E+00    0.0322636459888829
  41    1.98697E+00    0.0309655507472885
  42    1.91066E+00    0.0297762852122895
  43    1.81631E+00    0.0283058585910874
  44    1.75988E+00    0.0274264963914447
  45    1.66382E+00    0.0259294968581983
  46    1.62410E+00    0.0253104143831274
  47    1.55131E+00    0.0241760702457790
  48    1.54618E+00    0.0240961627029451
  49    1.41638E+00    0.0220733452293001
  50    1.46039E+00    0.0227591499140470
  51    1.33062E+00    0.0207367360170921
  52    1.47187E+00    0.0229380670761807
  53    1.10350E+00    0.0171973533317427
  54    1.44970E+00    0.0225925168129488
  55    7.15916E-01    0.0111570529181501
  56    1.71841E+00    0.0267802127786260
