  # July 4, 2014 09:19:42
 # jmin,jmax    0   50
 # Eau     0.00200000
 # r0,ra,rb,rdel,tol,Bau,mu   3.5000  25.0000  25.0000   4.0000  1.0000E-03  3.0130E-07  6.8548E+03
 # parity bigJ  0  0        1  0        1  1        2  0        2  1        2  2        3  0        3  1        3  2        3  3
 # jmin,jmax,maxlamb are            0          50         100
 # j and jp are          11          50
 # lam  B-lambda(j,jp)  angle
#   39      2.8763     14.7707
#   40      0.0043     26.1024
#   41      1.0878     34.1735
#   42      0.0040     40.9792
#   43      0.5257     47.0913
#   44      0.0030     52.7717
#   45      0.2464     58.1681
#   46      0.0020     63.3754
#   47      0.1054     68.4611
#   48      0.0012     73.4771
#   49      0.0459     78.4665
#   50      0.0007     83.4679
#   51      0.0284     88.5185
#   52      0.0004     93.6565
#   53      0.0195     98.9241
#   54      0.0002    104.3711
#   55      0.0097    110.0598
#   56      0.0000    116.0735
#   57      0.0034    122.5320
#   58      0.0000    129.6236
#   59      0.0013    137.6833
#   60      0.0000    147.4426
#   61      0.0010    161.4406
   0    8.47295E+00    1.0000000000000000
   1    7.09064E+00    0.8368558683174675
   2    5.24149E+00    0.6186149615423291
   3    3.66163E+00    0.4321555449540028
   4    2.57677E+00    0.3041174699786429
   5    1.92969E+00    0.2277470999075315
   6    1.59040E+00    0.1877036079024137
   7    1.38630E+00    0.1636142829390107
   8    1.22102E+00    0.1441075249057208
   9    1.07661E+00    0.1270644034562203
  10    9.63740E-01    0.1137431946533382
  11    8.67702E-01    0.1024084782623907
  12    7.84077E-01    0.0925388326797325
  13    7.05020E-01    0.0832083734557709
  14    6.36402E-01    0.0751098101566081
  15    5.68909E-01    0.0671441266367462
  16    5.10067E-01    0.0601994796728747
  17    4.45863E-01    0.0526219862269871
  18    3.94522E-01    0.0465625408528766
  19    3.25367E-01    0.0384006552469761
  20    2.87209E-01    0.0338972061961691
  21    1.93638E-01    0.0228536229786742
  22    1.69655E-01    0.0200231496937250
