  # July 4, 2014 09:19:42
 # jmin,jmax    0   50
 # Eau     0.00200000
 # r0,ra,rb,rdel,tol,Bau,mu   3.5000  25.0000  25.0000   4.0000  1.0000E-03  3.0130E-07  6.8548E+03
 # parity bigJ  0  0        1  0        1  1        2  0        2  1        2  2        3  0        3  1        3  2        3  3
 # jmin,jmax,maxlamb are            0          50         100
 # j and jp are          16          44
 # lam  B-lambda(j,jp)  angle
#   28      4.6415     11.1557
#   29      0.0848     19.6800
#   30      1.9455     25.7486
#   31      0.0826     30.8551
#   32      1.3104     35.4263
#   33      0.0673     39.6556
#   34      0.9593     43.6504
#   35      0.0504     47.4781
#   36      0.6976     51.1843
#   37      0.0356     54.8023
#   38      0.5263     58.3574
#   39      0.0239     61.8699
#   40      0.4085     65.3566
#   41      0.0156     68.8322
#   42      0.3411     72.3098
#   43      0.0104     75.8018
#   44      0.2663     79.3202
#   45      0.0073     82.8769
#   46      0.1708     86.4845
#   47      0.0049     90.1561
#   48      0.1185     93.9067
#   49      0.0028     97.7529
#   50      0.1006    101.7144
#   51      0.0013    105.8148
#   52      0.0701    110.0833
#   53      0.0005    114.5575
#   54      0.0357    119.2873
#   55      0.0002    124.3423
#   56      0.0173    129.8249
#   57      0.0001    135.8990
#   58      0.0098    142.8586
#   59      0.0000    151.3475
#   60      0.0067    163.5977
   0    1.46000E+01    1.0000000000000000
   1    1.05700E+01    0.7239759542106253
   2    6.57530E+00    0.4503645676185333
   3    4.37010E+00    0.2993231830011285
   4    3.30878E+00    0.2266296260610259
   5    2.65010E+00    0.1815145832252036
   6    2.23536E+00    0.1531076840559734
   7    1.91395E+00    0.1310930584420551
   8    1.69320E+00    0.1159727867850250
   9    1.54686E+00    0.1059499514544082
  10    1.40912E+00    0.0965155059043628
  11    1.21946E+00    0.0835249490614019
  12    1.09591E+00    0.0750624658138981
  13    1.01331E+00    0.0694048451378988
  14    9.49166E-01    0.0650115652588758
  15    8.54768E-01    0.0585459630639210
  16    8.02746E-01    0.0549827618350375
  17    7.44776E-01    0.0510122053289495
  18    7.17483E-01    0.0491428510560347
  19    6.57253E-01    0.0450174663314095
  20    6.36402E-01    0.0435893561210259
  21    5.80427E-01    0.0397553908373782
  22    5.81767E-01    0.0398471917284227
  23    5.21765E-01    0.0357374754678150
  24    5.52824E-01    0.0378647817173583
  25    4.66189E-01    0.0319308281179196
  26    5.38233E-01    0.0368653971877245
  27    4.08084E-01    0.0279510423524573
  28    5.07435E-01    0.0347559487680399
  29    3.73609E-01    0.0255897137356345
  30    5.04499E-01    0.0345548097446839
  31    2.56395E-01    0.0175613330558254
  32    6.62203E-01    0.0453565280018941
