  # July 4, 2014 09:19:42
 # jmin,jmax    0   50
 # Eau     0.00200000
 # r0,ra,rb,rdel,tol,Bau,mu   3.5000  25.0000  25.0000   4.0000  1.0000E-03  3.0130E-07  6.8548E+03
 # parity bigJ  0  0        1  0        1  1        2  0        2  1        2  2        3  0        3  1        3  2        3  3
 # jmin,jmax,maxlamb are            0          50         100
 # j and jp are          13          15
 # lam  B-lambda(j,jp)  angle
#    2   1740.1121      5.6004
#    3     13.1326     11.2244
#    4    211.9115     15.9016
#    5      3.9372     20.3131
#    6     63.6963     24.6185
#    7      1.0435     28.8830
#    8     25.5037     33.1407
#    9      0.3402     37.4139
#   10     12.2569     41.7188
#   11      0.1434     46.0693
#   12      6.7342     50.4783
#   13      0.0730     54.9585
#   14      4.1781     59.5236
#   15      0.0430     64.1885
#   16      2.8356     68.9701
#   17      0.0282     73.8880
#   18      2.1623     78.9661
#   19      0.0198     84.2332
#   20      1.7161     89.7259
#   21      0.0146     95.4913
#   22      1.5210    101.5931
#   23      0.0107    108.1200
#   24      1.4329    115.2040
#   25      0.0074    123.0562
#   26      1.4870    132.0566
#   27      0.0044    143.0397
#   28      2.4625    158.9114
   0    4.55758E+02    1.0000000000000000
   1    4.12878E+02    0.9059154318602795
   2    3.91447E+02    0.8588926482115539
   3    3.58028E+02    0.7855656261007460
   4    3.33887E+02    0.7325974849241698
   5    3.04785E+02    0.6687419047891001
   6    2.83195E+02    0.6213707559774263
   7    2.58827E+02    0.5679053201872999
   8    2.40453E+02    0.5275880744285008
   9    2.20078E+02    0.4828828014625281
  10    2.04584E+02    0.4488867348734389
  11    1.87233E+02    0.4108165816191217
  12    1.74129E+02    0.3820643755273662
  13    1.59117E+02    0.3491260539628923
  14    1.47867E+02    0.3244418993993775
  15    1.34552E+02    0.2952276347172242
  16    1.24857E+02    0.2739542868382003
  17    1.12862E+02    0.2476360842527084
  18    1.04336E+02    0.2289289356868048
  19    9.32657E+01    0.2046384806006411
  20    8.58687E+01    0.1884084167369958
  21    7.53328E+01    0.1652912253748245
  22    6.90070E+01    0.1514113337018949
  23    5.83880E+01    0.1281118830879293
  24    5.34435E+01    0.1172628063007132
  25    4.09258E+01    0.0897970871922782
  26    4.03539E+01    0.0885422576722290
