  # July 4, 2014 09:19:42
 # jmin,jmax    0   50
 # Eau     0.00200000
 # r0,ra,rb,rdel,tol,Bau,mu   3.5000  25.0000  25.0000   4.0000  1.0000E-03  3.0130E-07  6.8548E+03
 # parity bigJ  0  0        1  0        1  1        2  0        2  1        2  2        3  0        3  1        3  2        3  3
 # jmin,jmax,maxlamb are            0          50         100
 # j and jp are          26          46
 # lam  B-lambda(j,jp)  angle
#   20     14.1320      7.2904
#   21      0.7857     12.8721
#   22      5.6984     16.8608
#   23      0.4986     20.2249
#   24      3.6162     23.2398
#   25      0.3878     26.0295
#   26      2.4579     28.6621
#   27      0.3062     31.1797
#   28      1.7830     33.6105
#   29      0.2478     35.9744
#   30      1.4816     38.2859
#   31      0.1994     40.5565
#   32      1.2630     42.7949
#   33      0.1572     45.0083
#   34      1.0115     47.2028
#   35      0.1213     49.3833
#   36      0.8082     51.5542
#   37      0.0898     53.7194
#   38      0.6769     55.8823
#   39      0.0628     58.0460
#   40      0.5768     60.2135
#   41      0.0428     62.3875
#   42      0.4209     64.5707
#   43      0.0289     66.7656
#   44      0.2300     68.9748
#   45      0.0182     71.2009
#   46      0.1318     73.4464
#   47      0.0101     75.7141
#   48      0.1178     78.0066
#   49      0.0049     80.3270
#   50      0.0915     82.6784
#   51      0.0021     85.0641
#   52      0.0468     87.4878
#   53      0.0009     89.9535
#   54      0.0193     92.4657
#   55      0.0004     95.0293
#   56      0.0087     97.6500
#   57      0.0001    100.3342
#   58      0.0035    103.0892
#   59      0.0000    105.9239
#   60      0.0010    108.8482
#   61      0.0000    111.8746
#   62      0.0002    115.0180
#   63      0.0000    118.2970
#   64      0.0000    121.7350
#   65      0.0000    125.3629
#   66      0.0000    129.2219
#   67      0.0000    133.3703
#   68      0.0000    137.8942
#   69      0.0000    142.9315
#   70      0.0000    148.7306
#   71      0.0000    155.8346
#   72      0.0000    166.1226
   0    2.71223E+01    1.0000000000000000
   1    2.29446E+01    0.8459706833857695
   2    1.70118E+01    0.6272254786053691
   3    1.19916E+01    0.4421320405911874
   4    8.92835E+00    0.3291887664194051
   5    7.32609E+00    0.2701134611726665
   6    6.33378E+00    0.2335269681547465
   7    5.48939E+00    0.2023942472851103
   8    4.70186E+00    0.1733577895821221
   9    4.02043E+00    0.1482335238181667
  10    3.50740E+00    0.1293179669454328
  11    3.16672E+00    0.1167572811518549
  12    2.91838E+00    0.1076007169728416
  13    2.67143E+00    0.0984959713741001
  14    2.42194E+00    0.0892972781210609
  15    2.23647E+00    0.0824589065287944
  16    2.13723E+00    0.0787997504288824
  17    2.05511E+00    0.0757719260562945
  18    1.91889E+00    0.0707496623066267
  19    1.74476E+00    0.0643295762251633
  20    1.60001E+00    0.0589924957715111
  21    1.51031E+00    0.0556851162692411
  22    1.44456E+00    0.0532610091242789
  23    1.37305E+00    0.0506246154181969
  24    1.30002E+00    0.0479318634420894
  25    1.24017E+00    0.0457250487375978
  26    1.19270E+00    0.0439751203949418
  27    1.14674E+00    0.0422804604654920
  28    1.09770E+00    0.0404721209925764
  29    1.04946E+00    0.0386936742022453
  30    1.00654E+00    0.0371113867219440
  31    9.69111E-01    0.0357311850040484
  32    9.35042E-01    0.0344750554765293
  33    9.02468E-01    0.0332740535809329
  34    8.71027E-01    0.0321148135922397
  35    8.40735E-01    0.0309979612599120
  36    8.11650E-01    0.0299255818476683
  37    7.83332E-01    0.0288814965374865
  38    7.55784E-01    0.0278658105864139
  39    7.26491E-01    0.0267857637870813
  40    7.00043E-01    0.0258106231587595
  41    6.64412E-01    0.0244969331541334
  42    6.38459E-01    0.0235400318942488
  43    5.98582E-01    0.0220697470306532
  44    5.69119E-01    0.0209834429531829
  45    5.34523E-01    0.0197079023405710
  46    5.60585E-01    0.0206688262588961
  47    4.59421E-01    0.0169388850443037
  48    5.68660E-01    0.0209665233213184
  49    5.08026E-01    0.0187309478439990
  50    6.01817E-01    0.0221890374188673
  51    3.79333E-01    0.0139860524886116
  52    9.31395E-01    0.0343406049626242
