  # July 4, 2014 09:19:42
 # jmin,jmax    0   50
 # Eau     0.00200000
 # r0,ra,rb,rdel,tol,Bau,mu   3.5000  25.0000  25.0000   4.0000  1.0000E-03  3.0130E-07  6.8548E+03
 # parity bigJ  0  0        1  0        1  1        2  0        2  1        2  2        3  0        3  1        3  2        3  3
 # jmin,jmax,maxlamb are            0          50         100
 # j and jp are          23          37
 # lam  B-lambda(j,jp)  angle
#   14     27.6786      7.2132
#   15      2.5304     12.8233
#   16      9.6142     16.8835
#   17      1.3741     20.3476
#   18      5.4390     23.4844
#   19      0.8080     26.4142
#   20      3.7185     29.2027
#   21      0.4623     31.8902
#   22      2.7031     34.5037
#   23      0.2418     37.0622
#   24      1.9001     39.5797
#   25      0.1295     42.0670
#   26      1.4489     44.5328
#   27      0.0867     46.9841
#   28      1.1792     49.4269
#   29      0.0690     51.8662
#   30      0.9239     54.3067
#   31      0.0563     56.7524
#   32      0.7809     59.2072
#   33      0.0450     61.6748
#   34      0.6740     64.1586
#   35      0.0359     66.6621
#   36      0.5035     69.1888
#   37      0.0289     71.7424
#   38      0.3768     74.3264
#   39      0.0229     76.9450
#   40      0.3169     79.6021
#   41      0.0177     82.3025
#   42      0.2760     85.0510
#   43      0.0132     87.8533
#   44      0.2263     90.7154
#   45      0.0092     93.6445
#   46      0.1652     96.6487
#   47      0.0062     99.7373
#   48      0.1255    102.9215
#   49      0.0038    106.2147
#   50      0.1127    109.6329
#   51      0.0020    113.1963
#   52      0.0889    116.9305
#   53      0.0009    120.8685
#   54      0.0509    125.0552
#   55      0.0003    129.5534
#   56      0.0250    134.4561
#   57      0.0001    139.9127
#   58      0.0144    146.1913
#   59      0.0000    153.8797
#   60      0.0110    165.0116
   0    4.04791E+01    1.0000000000000000
   1    3.31095E+01    0.8179426717461894
   2    2.53287E+01    0.6257229645191267
   3    1.99459E+01    0.4927460213483995
   4    1.61384E+01    0.3986844357559255
   5    1.32316E+01    0.3268751977685844
   6    1.10629E+01    0.2732989296854385
   7    9.29311E+00    0.2295782683036900
   8    7.93947E+00    0.1961378624843672
   9    6.90548E+00    0.1705939729024863
  10    6.11337E+00    0.1510256351708533
  11    5.49595E+00    0.1357726354703212
  12    4.99924E+00    0.1235018295433475
  13    4.46658E+00    0.1103430160261593
  14    4.01417E+00    0.0991666342896877
  15    3.64883E+00    0.0901410850951919
  16    3.36424E+00    0.0831107007717795
  17    3.06653E+00    0.0757560091881547
  18    2.83281E+00    0.0699821640216672
  19    2.61439E+00    0.0645861915443453
  20    2.47753E+00    0.0612053482562450
  21    2.32893E+00    0.0575342994177838
  22    2.22347E+00    0.0549289529420188
  23    2.05351E+00    0.0507300847294345
  24    1.94456E+00    0.0480387368721105
  25    1.78154E+00    0.0440113198923614
  26    1.72982E+00    0.0427336780682618
  27    1.58060E+00    0.0390474421554376
  28    1.56982E+00    0.0387810538994138
  29    1.40387E+00    0.0346814898238921
  30    1.42499E+00    0.0352030832627561
  31    1.25200E+00    0.0309295673173230
  32    1.29432E+00    0.0319750847202397
  33    1.12289E+00    0.0277400812390162
  34    1.17723E+00    0.0290825327043669
  35    1.00351E+00    0.0247908463842610
  36    1.09647E+00    0.0270872698065454
  37    8.94386E-01    0.0220950345272921
  38    1.05053E+00    0.0259523891599434
  39    8.12540E-01    0.0200731060339809
  40    1.06971E+00    0.0264262172333257
  41    7.73072E-01    0.0190980756920024
  42    1.02907E+00    0.0254223739883273
  43    6.67384E-01    0.0164871528468543
  44    1.11058E+00    0.0274360306312022
  45    4.93463E-01    0.0121905719300711
  46    1.42164E+00    0.0351204676291080
