  # July 4, 2014 09:19:42
 # jmin,jmax    0   50
 # Eau     0.00200000
 # r0,ra,rb,rdel,tol,Bau,mu   3.5000  25.0000  25.0000   4.0000  1.0000E-03  3.0130E-07  6.8548E+03
 # parity bigJ  0  0        1  0        1  1        2  0        2  1        2  2        3  0        3  1        3  2        3  3
 # jmin,jmax,maxlamb are            0          50         100
 # j and jp are          15          42
 # lam  B-lambda(j,jp)  angle
#   27      8.0576     11.5630
#   28      0.1237     20.4176
#   29      3.2555     26.7312
#   30      0.1146     32.0529
#   31      2.1300     36.8248
#   32      0.0894     41.2477
#   33      1.5185     45.4331
#   34      0.0647     49.4510
#   35      1.1450     53.3492
#   36      0.0445     57.1627
#   37      0.8938     60.9184
#   38      0.0282     64.6380
#   39      0.7500     68.3400
#   40      0.0160     72.0407
#   41      0.6344     75.7552
#   42      0.0089     79.4980
#   43      0.4494     83.2835
#   44      0.0056     87.1269
#   45      0.2759     91.0444
#   46      0.0037     95.0542
#   47      0.1823     99.1771
#   48      0.0022    103.4381
#   49      0.1206    107.8678
#   50      0.0012    112.5053
#   51      0.0730    117.4022
#   52      0.0006    122.6304
#   53      0.0522    128.2957
#   54      0.0003    134.5669
#   55      0.0416    141.7468
#   56      0.0001    150.4984
#   57      0.0350    163.1212
   0    2.49292E+01    1.0000000000000000
   1    1.76619E+01    0.7084835068611803
   2    1.09429E+01    0.4389585927832851
   3    7.25501E+00    0.2910244235368902
   4    5.79257E+00    0.2323606430032865
   5    4.77733E+00    0.1916357028905192
   6    3.92776E+00    0.1575565009102728
   7    3.24673E+00    0.1302377922053756
   8    2.91759E+00    0.1170350474214854
   9    2.62550E+00    0.1053182229356308
  10    2.39158E+00    0.0959347346534583
  11    2.05447E+00    0.0824122599499204
  12    1.88257E+00    0.0755164183306639
  13    1.70228E+00    0.0682843943897585
  14    1.61600E+00    0.0648234428693042
  15    1.42512E+00    0.0571666061156096
  16    1.36047E+00    0.0545734338404690
  17    1.22015E+00    0.0489447568052215
  18    1.20298E+00    0.0482558991467177
  19    1.07692E+00    0.0431989250120732
  20    1.07729E+00    0.0432140708417705
  21    9.55188E-01    0.0383160049204750
  22    9.84009E-01    0.0394721208288197
  23    8.43339E-01    0.0338293362814976
  24    9.20334E-01    0.0369178842091827
  25    7.31074E-01    0.0293259998244212
  26    8.76127E-01    0.0351445937436558
  27    6.51657E-01    0.0261403007107305
  28    8.99754E-01    0.0360923577557368
  29    4.20873E-01    0.0168827286619340
  30    1.28388E+00    0.0515011420731754
