  # July 4, 2014 09:19:42
 # jmin,jmax    0   50
 # Eau     0.00200000
 # r0,ra,rb,rdel,tol,Bau,mu   3.5000  25.0000  25.0000   4.0000  1.0000E-03  3.0130E-07  6.8548E+03
 # parity bigJ  0  0        1  0        1  1        2  0        2  1        2  2        3  0        3  1        3  2        3  3
 # jmin,jmax,maxlamb are            0          50         100
 # j and jp are          18          41
 # lam  B-lambda(j,jp)  angle
#   23     15.3606      9.8941
#   24      0.2773     17.4741
#   25      6.3135     22.8866
#   26      0.2078     27.4522
#   27      3.4681     31.5468
#   28      0.1467     35.3407
#   29      2.2887     38.9279
#   30      0.1048     42.3669
#   31      1.7745     45.6972
#   32      0.0747     48.9474
#   33      1.3796     52.1389
#   34      0.0527     55.2885
#   35      1.0699     58.4100
#   36      0.0378     61.5151
#   37      0.8532     64.6141
#   38      0.0278     67.7161
#   39      0.7194     70.8298
#   40      0.0193     73.9633
#   41      0.5895     77.1249
#   42      0.0121     80.3228
#   43      0.4077     83.5656
#   44      0.0074     86.8627
#   45      0.2577     90.2240
#   46      0.0047     93.6609
#   47      0.1796     97.1863
#   48      0.0028    100.8153
#   49      0.1193    104.5659
#   50      0.0016    108.4603
#   51      0.0702    112.5261
#   52      0.0009    116.7992
#   53      0.0481    121.3274
#   54      0.0004    126.1779
#   55      0.0347    131.4498
#   56      0.0001    137.3018
#   57      0.0195    144.0190
#   58      0.0000    152.2257
#   59      0.0113    164.0854
   0    3.58069E+01    1.0000000000000000
   1    2.77322E+01    0.7744922070379362
   2    1.91103E+01    0.5337048279776425
   3    1.37163E+01    0.3830623631735102
   4    1.08607E+01    0.3033136231867091
   5    8.90875E+00    0.2487998043270188
   6    7.26669E+00    0.2029411119814324
   7    5.97465E+00    0.1668573655455178
   8    5.11984E+00    0.1429848215726730
   9    4.48070E+00    0.1251351202616621
  10    3.97860E+00    0.1111125711577976
  11    3.52778E+00    0.0985224008049300
  12    3.23743E+00    0.0904135118636653
  13    3.05063E+00    0.0851967381787392
  14    2.91764E+00    0.0814826888411840
  15    2.70879E+00    0.0756499057390024
  16    2.54834E+00    0.0711688321845635
  17    2.37130E+00    0.0662247701592380
  18    2.25664E+00    0.0630224896886255
  19    2.07951E+00    0.0580756787240578
  20    1.98185E+00    0.0553482084716587
  21    1.82291E+00    0.0509094109139628
  22    1.75616E+00    0.0490454220817021
  23    1.60234E+00    0.0447494271234689
  24    1.54476E+00    0.0431412929321360
  25    1.38774E+00    0.0387561362183188
  26    1.34569E+00    0.0375819041348564
  27    1.17801E+00    0.0328989402817664
  28    1.18195E+00    0.0330091264353183
  29    9.85796E-01    0.0275308985589531
  30    1.07207E+00    0.0299403645919740
  31    8.55380E-01    0.0238886883993340
  32    1.01235E+00    0.0282724315282431
  33    7.34542E-01    0.0205139667893538
  34    1.12454E+00    0.0314056288015055
  35    5.12359E-01    0.0143089302439511
  36    1.46246E+00    0.0408429490690798
