  # July 4, 2014 09:19:42
 # jmin,jmax    0   50
 # Eau     0.00200000
 # r0,ra,rb,rdel,tol,Bau,mu   3.5000  25.0000  25.0000   4.0000  1.0000E-03  3.0130E-07  6.8548E+03
 # parity bigJ  0  0        1  0        1  1        2  0        2  1        2  2        3  0        3  1        3  2        3  3
 # jmin,jmax,maxlamb are            0          50         100
 # j and jp are          27          31
 # lam  B-lambda(j,jp)  angle
#    4    673.3080      3.8925
#    5     30.4368      7.2887
#    6    139.8230      9.9393
#    7     10.8286     12.3370
#    8     51.4702     14.6089
#    9      4.6034     16.8083
#   10     23.4037     18.9628
#   11      2.3457     21.0882
#   12     12.2833     23.1948
#   13      1.2133     25.2897
#   14      7.0849     27.3779
#   15      0.6326     29.4632
#   16      4.6193     31.5486
#   17      0.3559     33.6368
#   18      3.1496     35.7297
#   19      0.2296     37.8294
#   20      2.3992     39.9375
#   21      0.1651     42.0555
#   22      1.8948     44.1851
#   23      0.1246     46.3277
#   24      1.4877     48.4848
#   25      0.1013     50.6578
#   26      1.2592     52.8483
#   27      0.0874     55.0578
#   28      1.0678     57.2880
#   29      0.0737     59.5405
#   30      0.8599     61.8171
#   31      0.0598     64.1198
#   32      0.7339     66.4506
#   33      0.0480     68.8118
#   34      0.6538     71.2057
#   35      0.0380     73.6350
#   36      0.5000     76.1025
#   37      0.0299     78.6115
#   38      0.3687     81.1655
#   39      0.0235     83.7685
#   40      0.3086     86.4250
#   41      0.0179     89.1399
#   42      0.2729     91.9190
#   43      0.0132     94.7691
#   44      0.2325     97.6979
#   45      0.0092    100.7144
#   46      0.1777    103.8293
#   47      0.0061    107.0558
#   48      0.1333    110.4097
#   49      0.0039    113.9107
#   50      0.1195    117.5841
#   51      0.0021    121.4626
#   52      0.1044    125.5905
#   53      0.0009    130.0300
#   54      0.0690    134.8736
#   55      0.0003    140.2691
#   56      0.0388    146.4828
#   57      0.0001    154.0977
#   58      0.0332    165.1310
   0    1.95623E+02    1.0000000000000000
   1    1.84175E+02    0.9414824853417432
   2    1.71431E+02    0.8763344997497179
   3    1.60193E+02    0.8188855216507502
   4    1.49834E+02    0.7659332499678039
   5    1.39842E+02    0.7148550046987528
   6    1.30178E+02    0.6654548557859425
   7    1.20751E+02    0.6172652527756086
   8    1.11975E+02    0.5724002339805716
   9    1.03746E+02    0.5303393044407614
  10    9.62733E+01    0.4921370755617578
  11    8.93566E+01    0.4567800414790624
  12    8.30047E+01    0.4243100289886203
  13    7.71691E+01    0.3944788317992076
  14    7.19625E+01    0.3678634719389834
  15    6.71076E+01    0.3430459587686804
  16    6.26899E+01    0.3204632649265006
  17    5.85842E+01    0.2994753501209004
  18    5.49224E+01    0.2807566825694556
  19    5.14785E+01    0.2631518727360504
  20    4.83816E+01    0.2473209930460679
  21    4.54053E+01    0.2321065256914351
  22    4.27985E+01    0.2187805410805724
  23    4.02867E+01    0.2059406973564286
  24    3.81211E+01    0.1948702344811415
  25    3.59236E+01    0.1836369637419923
  26    3.40521E+01    0.1740701359428958
  27    3.21160E+01    0.1641728059997353
  28    3.05295E+01    0.1560632762951253
  29    2.88419E+01    0.1474362824840107
  30    2.74770E+01    0.1404592227020665
  31    2.59780E+01    0.1327963718999076
  32    2.47838E+01    0.1266915432333114
  33    2.34134E+01    0.1196865059851410
  34    2.23607E+01    0.1143053590015898
  35    2.10714E+01    0.1077144837961542
  36    2.01661E+01    0.1030867953894775
  37    1.89493E+01    0.0968664592719280
  38    1.81821E+01    0.0929446197228789
  39    1.70138E+01    0.0869725593013222
  40    1.63739E+01    0.0837012630687772
  41    1.52561E+01    0.0779870904302540
  42    1.46709E+01    0.0749957709237441
  43    1.35745E+01    0.0693914035235686
  44    1.30940E+01    0.0669347348743559
  45    1.18603E+01    0.0606283718782448
  46    1.15688E+01    0.0591381891713088
  47    1.02573E+01    0.0524341953667600
  48    1.01029E+01    0.0516447077766353
  49    8.59173E+00    0.0439198478848756
  50    8.61598E+00    0.0440438248387835
  51    6.80553E+00    0.0347890418586740
  52    7.15007E+00    0.0365502828370802
  53    4.72983E+00    0.0241783176546949
  54    6.12663E+00    0.0313185628825304
