  # July 4, 2014 09:19:42
 # jmin,jmax    0   50
 # Eau     0.00200000
 # r0,ra,rb,rdel,tol,Bau,mu   3.5000  25.0000  25.0000   4.0000  1.0000E-03  3.0130E-07  6.8548E+03
 # parity bigJ  0  0        1  0        1  1        2  0        2  1        2  2        3  0        3  1        3  2        3  3
 # jmin,jmax,maxlamb are            0          50         100
 # j and jp are          30          47
 # lam  B-lambda(j,jp)  angle
#   17     35.8496      6.2011
#   18      2.0663     10.9715
#   19     14.3179     14.3950
#   20      1.4159     17.2930
#   21      8.6032     19.8981
#   22      1.2002     22.3149
#   23      5.7826     24.6006
#   24      1.0332     26.7902
#   25      4.2575     28.9072
#   26      0.8240     30.9681
#   27      3.3429     32.9850
#   28      0.6390     34.9670
#   29      2.5726     36.9213
#   30      0.4821     38.8537
#   31      2.0360     40.7690
#   32      0.3478     42.6711
#   33      1.6545     44.5635
#   34      0.2388     46.4490
#   35      1.1884     48.3302
#   36      0.1556     50.2094
#   37      0.7982     52.0888
#   38      0.0929     53.9703
#   39      0.5666     55.8556
#   40      0.0482     57.7466
#   41      0.4132     59.6448
#   42      0.0228     61.5519
#   43      0.3181     63.4693
#   44      0.0119     65.3988
#   45      0.2308     67.3418
#   46      0.0071     69.3000
#   47      0.1303     71.2749
#   48      0.0045     73.2684
#   49      0.0662     75.2821
#   50      0.0027     77.3179
#   51      0.0416     79.3778
#   52      0.0014     81.4639
#   53      0.0242     83.5785
#   54      0.0005     85.7240
#   55      0.0097     87.9031
#   56      0.0002     90.1187
#   57      0.0031     92.3740
#   58      0.0001     94.6728
#   59      0.0011     97.0189
#   60      0.0000     99.4171
#   61      0.0004    101.8724
#   62      0.0000    104.3910
#   63      0.0001    106.9796
#   64      0.0000    109.6465
#   65      0.0000    112.4012
#   66      0.0000    115.2555
#   67      0.0000    118.2234
#   68      0.0000    121.3227
#   69      0.0000    124.5756
#   70      0.0000    128.0115
#   71      0.0000    131.6698
#   72      0.0000    135.6059
#   73      0.0000    139.9019
#   74      0.0000    144.6894
#   75      0.0000    150.2050
#   76      0.0000    156.9668
#   77      0.0000    166.7646
   0    5.20318E+01    1.0000000000000000
   1    4.65903E+01    0.8954186210409313
   2    3.79868E+01    0.7300682178673611
   3    2.92135E+01    0.5614549467914765
   4    2.22635E+01    0.4278815698559781
   5    1.75684E+01    0.3376477833155336
   6    1.45784E+01    0.2801825703657665
   7    1.25817E+01    0.2418076203936469
   8    1.11027E+01    0.2133824118655142
   9    9.89529E+00    0.1901776076893690
  10    8.83817E+00    0.1698607867263409
  11    7.88638E+00    0.1515684601032242
  12    7.05183E+00    0.1355291321826324
  13    6.36734E+00    0.1223738919365833
  14    5.84295E+00    0.1122957936904663
  15    5.44313E+00    0.1046115343936062
  16    5.10148E+00    0.0980453061811717
  17    4.76509E+00    0.0915803030044188
  18    4.43084E+00    0.0851563385730201
  19    4.13447E+00    0.0794603941242818
  20    3.90216E+00    0.0749955750931196
  21    3.72050E+00    0.0715042701637260
  22    3.55603E+00    0.0683433469051815
  23    3.39057E+00    0.0651634137267653
  24    3.22692E+00    0.0620181969573025
  25    3.06995E+00    0.0590013298721448
  26    2.91834E+00    0.0560875749059669
  27    2.77429E+00    0.0533191162010940
  28    2.64790E+00    0.0508899740994075
  29    2.54592E+00    0.0489300393977878
  30    2.46163E+00    0.0473100173775969
  31    2.38031E+00    0.0457471969396933
  32    2.29267E+00    0.0440627988208815
  33    2.20037E+00    0.0422890119910118
  34    2.11066E+00    0.0405647150568269
  35    2.02857E+00    0.0389871750465980
  36    1.95436E+00    0.0375609363265710
  37    1.88546E+00    0.0362367279129336
  38    1.81931E+00    0.0349653414191383
  39    1.75454E+00    0.0337204878446238
  40    1.69079E+00    0.0324952421463325
  41    1.62811E+00    0.0312906779693467
  42    1.56655E+00    0.0301074822608891
  43    1.50596E+00    0.0289431247787542
  44    1.44608E+00    0.0277922817042518
  45    1.38602E+00    0.0266379790055771
  46    1.32643E+00    0.0254927656053127
  47    1.26455E+00    0.0243033819838753
  48    1.20472E+00    0.0231535724866209
  49    1.14697E+00    0.0220437081452170
  50    1.09313E+00    0.0210088128280457
  51    1.05075E+00    0.0201943300253651
  52    1.04685E+00    0.0201195063559968
  53    1.00339E+00    0.0192842008477740
  54    9.88558E-01    0.0189990993531895
  55    9.22243E-01    0.0177246010565158
  56    9.29740E-01    0.0178686759298071
  57    7.98617E-01    0.0153486327946923
  58    1.02785E+00    0.0197542614791420
  59    7.59998E-01    0.0146064141198715
  60    1.26512E+00    0.0243143990451850
