  # July 4, 2014 09:19:42
 # jmin,jmax    0   50
 # Eau     0.00200000
 # r0,ra,rb,rdel,tol,Bau,mu   3.5000  25.0000  25.0000   4.0000  1.0000E-03  3.0130E-07  6.8548E+03
 # parity bigJ  0  0        1  0        1  1        2  0        2  1        2  2        3  0        3  1        3  2        3  3
 # jmin,jmax,maxlamb are            0          50         100
 # j and jp are          28          39
 # lam  B-lambda(j,jp)  angle
#   11     71.3247      5.6597
#   12      3.5177     10.1131
#   13     29.7717     13.3662
#   14      1.9386     16.1630
#   15     17.9216     18.7115
#   16      1.3450     21.1038
#   17     11.5696     23.3898
#   18      1.0083     25.6000
#   19      8.2280     27.7546
#   20      0.7413     29.8674
#   21      5.7837     31.9487
#   22      0.5345     34.0064
#   23      4.2954     36.0465
#   24      0.3931     38.0740
#   25      3.2966     40.0928
#   26      0.3032     42.1064
#   27      2.4280     44.1177
#   28      0.2313     46.1293
#   29      1.8782     48.1435
#   30      0.1637     50.1625
#   31      1.4911     52.1883
#   32      0.1140     54.2227
#   33      1.1871     56.2676
#   34      0.0848     58.3246
#   35      0.9631     60.3956
#   36      0.0655     62.4823
#   37      0.8046     64.5865
#   38      0.0491     66.7100
#   39      0.6990     68.8548
#   40      0.0337     71.0228
#   41      0.5537     73.2160
#   42      0.0214     75.4369
#   43      0.3623     77.6876
#   44      0.0137     79.9710
#   45      0.2298     82.2897
#   46      0.0088     84.6469
#   47      0.1585     87.0461
#   48      0.0054     89.4909
#   49      0.0961     91.9858
#   50      0.0032     94.5355
#   51      0.0544     97.1456
#   52      0.0018     99.8223
#   53      0.0372    102.5730
#   54      0.0008    105.4063
#   55      0.0226    108.3325
#   56      0.0003    111.3637
#   57      0.0092    114.5150
#   58      0.0001    117.8051
#   59      0.0029    121.2576
#   60      0.0000    124.9036
#   61      0.0011    128.7847
#   62      0.0000    132.9596
#   63      0.0004    137.5154
#   64      0.0000    142.5914
#   65      0.0001    148.4382
#   66      0.0000    155.6047
#   67      0.0000    165.9885
   0    8.12352E+01    1.0000000000000000
   1    7.13476E+01    0.8782847537680010
   2    5.74637E+01    0.7073746653907311
   3    4.53151E+01    0.5578258816962804
   4    3.65425E+01    0.4498355858038729
   5    3.01136E+01    0.3706969818598614
   6    2.49966E+01    0.3077070990500715
   7    2.09219E+01    0.2575475049681632
   8    1.78820E+01    0.2201266784588859
   9    1.56877E+01    0.1931140764543413
  10    1.39776E+01    0.1720629702636039
  11    1.24995E+01    0.1538683310173875
  12    1.12354E+01    0.1383065393263431
  13    1.02306E+01    0.1259383192530836
  14    9.44838E+00    0.1163089206114360
  15    8.79832E+00    0.1083067497251669
  16    8.20961E+00    0.1010598149686703
  17    7.67221E+00    0.0944443588573860
  18    7.22244E+00    0.0889077462644625
  19    6.85903E+00    0.0844341596455225
  20    6.52532E+00    0.0803262949634502
  21    6.19248E+00    0.0762289709292247
  22    5.89552E+00    0.0725734378312530
  23    5.65709E+00    0.0696384612766504
  24    5.45418E+00    0.0671405787609320
  25    5.25627E+00    0.0647044061009676
  26    5.06380E+00    0.0623350692025001
  27    4.87901E+00    0.0600602968511515
  28    4.69962E+00    0.0578520764981529
  29    4.51753E+00    0.0556104466594315
  30    4.34406E+00    0.0534751360287712
  31    4.18708E+00    0.0515426594384506
  32    4.05866E+00    0.0499618216493459
  33    3.94820E+00    0.0486020839068399
  34    3.85877E+00    0.0475011722538219
  35    3.76409E+00    0.0463356891553123
  36    3.68948E+00    0.0454172441255621
  37    3.58574E+00    0.0441401760900296
  38    3.52152E+00    0.0433496316117222
  39    3.40647E+00    0.0419334454668473
  40    3.34564E+00    0.0411845960443295
  41    3.22337E+00    0.0396794311531895
  42    3.15917E+00    0.0388891882245949
  43    3.00815E+00    0.0370301841876686
  44    2.97469E+00    0.0366182589251861
  45    2.77243E+00    0.0341283906929757
  46    2.79295E+00    0.0343810255103253
  47    2.59464E+00    0.0319398771531500
  48    2.68826E+00    0.0330923441576181
  49    2.37923E+00    0.0292881470548795
  50    2.64409E+00    0.0325485229341158
  51    2.06491E+00    0.0254189181398117
  52    2.55043E+00    0.0313956728037000
  53    1.78263E+00    0.0219440247427962
  54    2.56355E+00    0.0315571607885768
  55    1.45560E+00    0.0179182959494601
  56    3.00007E+00    0.0369307105977017
