  # July 4, 2014 09:19:42
 # jmin,jmax    0   50
 # Eau     0.00200000
 # r0,ra,rb,rdel,tol,Bau,mu   3.5000  25.0000  25.0000   4.0000  1.0000E-03  3.0130E-07  6.8548E+03
 # parity bigJ  0  0        1  0        1  1        2  0        2  1        2  2        3  0        3  1        3  2        3  3
 # jmin,jmax,maxlamb are            0          50         100
 # j and jp are          24          33
 # lam  B-lambda(j,jp)  angle
#    9     87.9040      5.9953
#   10      1.4795     10.7831
#   11     33.4466     14.3185
#   12      0.8809     17.3865
#   13     19.3073     20.2044
#   14      0.6674     22.8679
#   15     13.0715     25.4286
#   16      0.5051     27.9177
#   17      9.0779     30.3561
#   18      0.3782     32.7580
#   19      6.4958     35.1342
#   20      0.2910     37.4927
#   21      4.8062     39.8400
#   22      0.2281     42.1814
#   23      3.5741     44.5212
#   24      0.1824     46.8634
#   25      2.7619     49.2114
#   26      0.1465     51.5683
#   27      2.1227     53.9370
#   28      0.1170     56.3204
#   29      1.6945     58.7212
#   30      0.0926     61.1420
#   31      1.3956     63.5858
#   32      0.0725     66.0552
#   33      1.1326     68.5533
#   34      0.0562     71.0830
#   35      0.9439     73.6479
#   36      0.0430     76.2513
#   37      0.8113     78.8973
#   38      0.0322     81.5901
#   39      0.7194     84.3344
#   40      0.0230     87.1357
#   41      0.6304     90.0000
#   42      0.0152     92.9342
#   43      0.4727     95.9463
#   44      0.0096     99.0458
#   45      0.3022    102.2436
#   46      0.0060    105.5532
#   47      0.2068    108.9908
#   48      0.0037    112.5766
#   49      0.1530    116.3363
#   50      0.0021    120.3033
#   51      0.1003    124.5229
#   52      0.0011    129.0585
#   53      0.0687    134.0040
#   54      0.0005    139.5104
#   55      0.0579    145.8486
#   56      0.0001    153.6125
#   57      0.0573    164.8576
   0    9.38620E+01    1.0000000000000000
   1    7.72323E+01    0.8228288876808664
   2    5.98444E+01    0.6375788363934360
   3    4.74871E+01    0.5059251894889480
   4    3.89327E+01    0.4147862620812883
   5    3.18836E+01    0.3396864383323102
   6    2.66536E+01    0.2839658185992368
   7    2.29094E+01    0.2440751855457454
   8    2.02011E+01    0.2152217385222136
   9    1.78199E+01    0.1898526830163783
  10    1.59950E+01    0.1704097276207761
  11    1.45170E+01    0.1546634113074701
  12    1.33638E+01    0.1423769272149750
  13    1.21736E+01    0.1296963253254943
  14    1.12874E+01    0.1202552300638856
  15    1.04653E+01    0.1114969812644071
  16    9.81406E+00    0.1045584485378773
  17    9.10394E+00    0.0969928918719868
  18    8.60555E+00    0.0916830502637772
  19    8.05460E+00    0.0858132821828335
  20    7.67818E+00    0.0818029032126732
  21    7.23643E+00    0.0770965078431462
  22    6.97226E+00    0.0742820645073305
  23    6.59667E+00    0.0702805696265774
  24    6.39617E+00    0.0681444346860045
  25    6.06354E+00    0.0646006457171165
  26    5.94713E+00    0.0633603310010593
  27    5.62756E+00    0.0599556512110384
  28    5.55167E+00    0.0591471347894042
  29    5.20182E+00    0.0554198347246806
  30    5.15812E+00    0.0549542634605698
  31    4.80354E+00    0.0511766594563829
  32    4.80941E+00    0.0512391515529859
  33    4.44469E+00    0.0473534757533484
  34    4.52935E+00    0.0482554420465436
  35    4.07791E+00    0.0434458549299128
  36    4.30998E+00    0.0459182801727488
  37    3.71379E+00    0.0395664747083821
  38    4.12354E+00    0.0439319525711267
  39    3.42962E+00    0.0365389846122204
  40    3.99772E+00    0.0425915138377144
  41    3.20125E+00    0.0341059173548771
  42    3.86290E+00    0.0411551237251758
  43    2.95056E+00    0.0314351472027983
  44    3.81201E+00    0.0406128891478791
  45    2.63747E+00    0.0280994594154929
  46    3.87250E+00    0.0412574050348997
  47    2.18010E+00    0.0232266301281411
  48    4.67788E+00    0.0498378111240968
