  # July 4, 2014 09:19:42
 # jmin,jmax    0   50
 # Eau     0.00200000
 # r0,ra,rb,rdel,tol,Bau,mu   3.5000  25.0000  25.0000   4.0000  1.0000E-03  3.0130E-07  6.8548E+03
 # parity bigJ  0  0        1  0        1  1        2  0        2  1        2  2        3  0        3  1        3  2        3  3
 # jmin,jmax,maxlamb are            0          50         100
 # j and jp are          23          50
 # lam  B-lambda(j,jp)  angle
#   27     11.7339      8.6269
#   28      0.6379     15.1849
#   29      5.3285     19.8403
#   30      0.1695     23.7436
#   31      3.5136     27.2237
#   32      0.0918     30.4292
#   33      2.5988     33.4423
#   34      0.0669     36.3140
#   35      2.0334     39.0785
#   36      0.0525     41.7601
#   37      1.6306     44.3770
#   38      0.0400     46.9431
#   39      1.2199     49.4695
#   40      0.0287     51.9654
#   41      0.7877     54.4383
#   42      0.0194     56.8947
#   43      0.4410     59.3404
#   44      0.0124     61.7806
#   45      0.2133     64.2198
#   46      0.0076     66.6624
#   47      0.0897     69.1125
#   48      0.0046     71.5742
#   49      0.0449     74.0514
#   50      0.0026     76.5479
#   51      0.0313     79.0679
#   52      0.0013     81.6154
#   53      0.0182     84.1949
#   54      0.0005     86.8110
#   55      0.0068     89.4688
#   56      0.0002     92.1737
#   57      0.0020     94.9320
#   58      0.0001     97.7505
#   59      0.0007    100.6371
#   60      0.0000    103.6011
#   61      0.0003    106.6531
#   62      0.0000    109.8058
#   63      0.0001    113.0749
#   64      0.0000    116.4795
#   65      0.0000    120.0440
#   66      0.0000    123.7999
#   67      0.0000    127.7898
#   68      0.0000    132.0733
#   69      0.0000    136.7390
#   70      0.0000    141.9283
#   71      0.0000    147.8959
#   72      0.0000    155.1990
#   73      0.0000    165.7661
   0    2.80349E+01    1.0000000000000000
   1    2.42504E+01    0.8650079076747984
   2    1.83803E+01    0.6556212606822897
   3    1.26593E+01    0.4515556926009378
   4    8.56410E+00    0.3054797771738396
   5    6.33674E+00    0.2260304588224942
   6    5.37509E+00    0.1917285941228407
   7    4.90573E+00    0.1749864878572312
   8    4.43435E+00    0.1581723705667139
   9    3.84470E+00    0.1371398954799118
  10    3.25683E+00    0.1161704366996803
  11    2.81413E+00    0.1003795134578067
  12    2.54813E+00    0.0908913468768368
  13    2.38662E+00    0.0851302858460462
  14    2.24757E+00    0.0801703162349134
  15    2.10285E+00    0.0750081970752254
  16    1.96430E+00    0.0700663439321195
  17    1.84301E+00    0.0657397725854947
  18    1.73805E+00    0.0619961003507879
  19    1.64835E+00    0.0587962015097590
  20    1.57571E+00    0.0562051441098642
  21    1.51725E+00    0.0541200521961986
  22    1.46440E+00    0.0522349572850619
  23    1.41071E+00    0.0503196675679455
  24    1.35641E+00    0.0483830294095354
  25    1.30507E+00    0.0465516538553120
  26    1.25859E+00    0.0448938348547743
  27    1.21626E+00    0.0433837245593303
  28    1.17656E+00    0.0419675966724738
  29    1.13865E+00    0.0406153176351349
  30    1.10242E+00    0.0393229464507296
  31    1.06796E+00    0.0380941178330856
  32    1.03531E+00    0.0369294319395407
  33    1.00427E+00    0.0358220454338650
  34    9.74638E-01    0.0347651509276106
  35    9.45870E-01    0.0337390035274471
  36    9.18200E-01    0.0327520363250083
  37    8.90664E-01    0.0317698291442094
  38    8.65796E-01    0.0308827752766190
  39    8.42986E-01    0.0300691571873484
  40    8.27132E-01    0.0295036507971870
  41    8.21485E-01    0.0293022298769307
  42    8.23654E-01    0.0293795897921932
  43    8.00904E-01    0.0285681039902822
  44    8.09840E-01    0.0288868655015776
  45    7.30894E-01    0.0260708666857314
  46    6.36623E-01    0.0227082169645596
