  # July 4, 2014 09:19:42
 # jmin,jmax    0   50
 # Eau     0.00200000
 # r0,ra,rb,rdel,tol,Bau,mu   3.5000  25.0000  25.0000   4.0000  1.0000E-03  3.0130E-07  6.8548E+03
 # parity bigJ  0  0        1  0        1  1        2  0        2  1        2  2        3  0        3  1        3  2        3  3
 # jmin,jmax,maxlamb are            0          50         100
 # j and jp are          22          37
 # lam  B-lambda(j,jp)  angle
#   15     39.9307      7.6294
#   16      0.9521     13.5469
#   17     15.5449     17.8199
#   18      0.6398     21.4585
#   19      8.8988     24.7481
#   20      0.4245     27.8167
#   21      5.8161     30.7341
#   22      0.3059     33.5437
#   23      4.2256     36.2740
#   24      0.2331     38.9456
#   25      3.1297     41.5737
#   26      0.1735     44.1698
#   27      2.2918     46.7434
#   28      0.1234     49.3021
#   29      1.8184     51.8524
#   30      0.0899     54.4001
#   31      1.4750     56.9502
#   32      0.0689     59.5072
#   33      1.1730     62.0756
#   34      0.0536     64.6596
#   35      0.9661     67.2631
#   36      0.0415     69.8903
#   37      0.8205     72.5452
#   38      0.0316     75.2323
#   39      0.7193     77.9560
#   40      0.0228     80.7212
#   41      0.6095     83.5330
#   42      0.0151     86.3974
#   43      0.4347     89.3207
#   44      0.0095     92.3102
#   45      0.2733     95.3743
#   46      0.0060     98.5225
#   47      0.1893    101.7663
#   48      0.0037    105.1192
#   49      0.1327    108.5977
#   50      0.0021    112.2223
#   51      0.0808    116.0188
#   52      0.0012    120.0209
#   53      0.0541    124.2741
#   54      0.0005    128.8419
#   55      0.0404    133.8189
#   56      0.0002    139.3562
#   57      0.0245    145.7258
#   58      0.0000    153.5233
#   59      0.0149    164.8106
   0    6.25706E+01    1.0000000000000000
   1    5.06339E+01    0.8092294112203808
   2    3.75522E+01    0.6001573471628354
   3    2.87577E+01    0.4596036115354949
   4    2.32687E+01    0.3718784812711846
   5    1.90321E+01    0.3041699744684869
   6    1.56290E+01    0.2497821362667141
   7    1.31929E+01    0.2108484554949205
   8    1.15434E+01    0.1844864969419746
   9    1.01720E+01    0.1625688965913498
  10    8.99360E+00    0.1437352519927100
  11    8.01124E+00    0.1280352146869213
  12    7.32029E+00    0.1169925347945202
  13    6.70762E+00    0.1072008303028971
  14    6.15504E+00    0.0983695204536085
  15    5.66511E+00    0.0905395522724702
  16    5.35539E+00    0.0855895459290763
  17    5.04069E+00    0.0805600011323284
  18    4.78957E+00    0.0765467245266794
  19    4.49860E+00    0.0718963772565897
  20    4.29122E+00    0.0685820411471797
  21    4.00766E+00    0.0640502818085480
  22    3.81967E+00    0.0610458253307875
  23    3.57722E+00    0.0571710415696764
  24    3.45598E+00    0.0552332587854739
  25    3.25254E+00    0.0519818766217541
  26    3.15506E+00    0.0504240502263689
  27    2.95101E+00    0.0471628891635101
  28    2.87712E+00    0.0459820258901963
  29    2.66474E+00    0.0425877635316601
  30    2.63716E+00    0.0421470104064142
  31    2.40115E+00    0.0383750615519331
  32    2.42425E+00    0.0387442935048699
  33    2.16226E+00    0.0345571513797660
  34    2.21982E+00    0.0354769976569716
  35    1.92651E+00    0.0307893357151974
  36    2.05773E+00    0.0328866115553834
  37    1.64574E+00    0.0263021243499798
  38    1.99334E+00    0.0318575191067925
  39    1.40898E+00    0.0225182508295664
  40    2.00228E+00    0.0320002665465451
  41    1.20120E+00    0.0191975072189982
  42    1.98350E+00    0.0317002448851990
  43    9.13408E-01    0.0145980506557884
  44    2.38390E+00    0.0380993611699443
