  # July 4, 2014 09:19:42
 # jmin,jmax    0   50
 # Eau     0.00200000
 # r0,ra,rb,rdel,tol,Bau,mu   3.5000  25.0000  25.0000   4.0000  1.0000E-03  3.0130E-07  6.8548E+03
 # parity bigJ  0  0        1  0        1  1        2  0        2  1        2  2        3  0        3  1        3  2        3  3
 # jmin,jmax,maxlamb are            0          50         100
 # j and jp are          30          49
 # lam  B-lambda(j,jp)  angle
#   19     32.0850      6.4214
#   20      1.8093     11.3403
#   21     14.3937     14.8580
#   22      1.3448     17.8262
#   23      9.5703     20.4868
#   24      0.7556     22.9489
#   25      6.8517     25.2721
#   26      0.4528     27.4931
#   27      5.1342     29.6366
#   28      0.2552     31.7198
#   29      3.9614     33.7554
#   30      0.1588     35.7530
#   31      3.1664     37.7204
#   32      0.1111     39.6635
#   33      2.6056     41.5874
#   34      0.0816     43.4962
#   35      2.2171     45.3936
#   36      0.0605     47.2825
#   37      1.8505     49.1658
#   38      0.0433     51.0459
#   39      1.3439     52.9250
#   40      0.0292     54.8050
#   41      0.8242     56.6879
#   42      0.0187     58.5755
#   43      0.4483     60.4694
#   44      0.0111     62.3714
#   45      0.2078     64.2830
#   46      0.0063     66.2058
#   47      0.0796     68.1415
#   48      0.0038     70.0916
#   49      0.0399     72.0579
#   50      0.0023     74.0421
#   51      0.0293     76.0459
#   52      0.0011     78.0713
#   53      0.0158     80.1201
#   54      0.0004     82.1946
#   55      0.0052     84.2970
#   56      0.0001     86.4297
#   57      0.0014     88.5954
#   58      0.0000     90.7971
#   59      0.0006     93.0380
#   60      0.0000     95.3217
#   61      0.0002     97.6522
#   62      0.0000    100.0340
#   63      0.0001    102.4724
#   64      0.0000    104.9733
#   65      0.0000    107.5435
#   66      0.0000    110.1912
#   67      0.0000    112.9259
#   68      0.0000    115.7592
#   69      0.0000    118.7051
#   70      0.0000    121.7811
#   71      0.0000    125.0094
#   72      0.0000    128.4192
#   73      0.0000    132.0494
#   74      0.0000    135.9551
#   75      0.0000    140.2177
#   76      0.0000    144.9679
#   77      0.0000    150.4402
#   78      0.0000    157.1486
#   79      0.0000    166.8686
   0    5.60060E+01    1.0000000000000000
   1    4.97532E+01    0.8883546540828255
   2    3.97090E+01    0.7090141508411486
   3    2.93246E+01    0.5235972296967996
   4    2.12061E+01    0.3786406273304732
   5    1.61495E+01    0.2883532752088413
   6    1.34282E+01    0.2397636699374562
   7    1.17900E+01    0.2105138996182591
   8    1.03374E+01    0.1845773297525019
   9    8.83045E+00    0.1576696864952198
  10    7.47023E+00    0.1333825970600657
  11    6.50312E+00    0.1161146213822355
  12    5.96353E+00    0.1064802679188943
  13    5.67524E+00    0.1013327825689844
  14    5.42065E+00    0.0967869202453697
  15    5.09485E+00    0.0909696578019805
  16    4.72655E+00    0.0843937031517242
  17    4.39189E+00    0.0784182414472350
  18    4.13015E+00    0.0737447008985125
  19    3.92977E+00    0.0701668754762858
  20    3.76163E+00    0.0671647015593460
  21    3.60431E+00    0.0643558666315778
  22    3.44576E+00    0.0615249136346390
  23    3.28145E+00    0.0585911098693095
  24    3.11834E+00    0.0556786701966312
  25    2.97190E+00    0.0530638708316453
  26    2.85167E+00    0.0509172939315789
  27    2.75127E+00    0.0491245236798458
  28    2.65542E+00    0.0474132173810801
  29    2.55532E+00    0.0456258130142462
  30    2.45456E+00    0.0438267673941609
  31    2.36213E+00    0.0421763613356322
  32    2.28286E+00    0.0407609175700348
  33    2.21495E+00    0.0395484475267565
  34    2.15383E+00    0.0384571806788541
  35    2.09628E+00    0.0374295312582159
  36    2.04144E+00    0.0364503712414654
  37    1.98963E+00    0.0355253412946373
  38    1.94104E+00    0.0346577614670250
  39    1.89532E+00    0.0338413991201001
  40    1.85182E+00    0.0330647529975608
  41    1.80994E+00    0.0323169672525384
  42    1.76931E+00    0.0315913974394539
  43    1.72980E+00    0.0308859498492165
  44    1.69151E+00    0.0302022715104593
  45    1.65467E+00    0.0295445134678318
  46    1.61941E+00    0.0289149491968013
  47    1.58582E+00    0.0283152311408145
  48    1.55363E+00    0.0277404092559038
  49    1.52084E+00    0.0271549739169543
  50    1.48924E+00    0.0265908055340633
  51    1.45459E+00    0.0259721075508067
  52    1.41730E+00    0.0253062301375503
  53    1.39426E+00    0.0248949038595471
  54    1.38985E+00    0.0248161354590265
  55    1.34354E+00    0.0239893009650238
  56    1.32112E+00    0.0235888874049332
  57    1.26224E+00    0.0225375780607465
  58    1.28521E+00    0.0229477478602945
  59    1.34635E+00    0.0240393630257065
  60    1.97078E+00    0.0351887729460658
