  # July 4, 2014 09:19:42
 # jmin,jmax    0   50
 # Eau     0.00200000
 # r0,ra,rb,rdel,tol,Bau,mu   3.5000  25.0000  25.0000   4.0000  1.0000E-03  3.0130E-07  6.8548E+03
 # parity bigJ  0  0        1  0        1  1        2  0        2  1        2  2        3  0        3  1        3  2        3  3
 # jmin,jmax,maxlamb are            0          50         100
 # j and jp are          32          34
 # lam  B-lambda(j,jp)  angle
#    2   3370.0613      2.4197
#    3    100.0095      4.8414
#    4    415.9121      6.8490
#    5     36.0631      8.7341
#    6    127.3400     10.5638
#    7     15.3890     12.3641
#    8     52.8083     14.1474
#    9      6.3782     15.9208
#   10     25.4899     17.6887
#   11      3.3992     19.4541
#   12     13.6961     21.2190
#   13      2.2663     22.9850
#   14      8.3411     24.7534
#   15      1.5595     26.5253
#   16      5.4085     28.3016
#   17      1.1216     30.0831
#   18      3.7269     31.8707
#   19      0.8253     33.6650
#   20      2.8798     35.4668
#   21      0.5954     37.2768
#   22      2.1492     39.0958
#   23      0.3991     40.9243
#   24      1.6107     42.7632
#   25      0.2384     44.6132
#   26      1.3663     46.4750
#   27      0.1437     48.3495
#   28      1.1417     50.2374
#   29      0.1060     52.1397
#   30      0.8921     54.0573
#   31      0.0865     55.9911
#   32      0.7748     57.9421
#   33      0.0687     59.9114
#   34      0.6565     61.9002
#   35      0.0545     63.9098
#   36      0.4857     65.9413
#   37      0.0436     67.9964
#   38      0.3756     70.0764
#   39      0.0345     72.1831
#   40      0.3202     74.3182
#   41      0.0267     76.4838
#   42      0.2762     78.6820
#   43      0.0197     80.9153
#   44      0.2172     83.1861
#   45      0.0137     85.4976
#   46      0.1531     87.8528
#   47      0.0092     90.2556
#   48      0.1206     92.7099
#   49      0.0057     95.2206
#   50      0.1052     97.7929
#   51      0.0029    100.4332
#   52      0.0720    103.1485
#   53      0.0013    105.9474
#   54      0.0353    108.8400
#   55      0.0005    111.8384
#   56      0.0157    114.9574
#   57      0.0002    118.2157
#   58      0.0076    121.6367
#   59      0.0001    125.2513
#   60      0.0030    129.1008
#   61      0.0000    133.2437
#   62      0.0008    137.7664
#   63      0.0000    142.8076
#   64      0.0002    148.6167
#   65      0.0000    155.7394
#   66      0.0001    166.0633
   0    4.05462E+02    1.0000000000000000
   1    3.96199E+02    0.9771556169623953
   2    3.82795E+02    0.9440973125078324
   3    3.69437E+02    0.9111517598340964
   4    3.56748E+02    0.8798569839928193
   5    3.44202E+02    0.8489133288929124
   6    3.31806E+02    0.8183422463450636
   7    3.19681E+02    0.7884380265844994
   8    3.07813E+02    0.7591675385844447
   9    2.96272E+02    0.7307017846103206
  10    2.85137E+02    0.7032406597181815
  11    2.74386E+02    0.6767258424875935
  12    2.64007E+02    0.6511264932625019
  13    2.54027E+02    0.6265133839748378
  14    2.44434E+02    0.6028535224598329
  15    2.35227E+02    0.5801457157955950
  16    2.26463E+02    0.5585323610732784
  17    2.18137E+02    0.5379954928599623
  18    2.10154E+02    0.5183083724756131
  19    2.02474E+02    0.4993672621275670
  20    1.95124E+02    0.4812396100410056
  21    1.88099E+02    0.4639122078263224
  22    1.81352E+02    0.4472725806522964
  23    1.74851E+02    0.4312403996543765
  24    1.68593E+02    0.4158059480374547
  25    1.62575E+02    0.4009627498143727
  26    1.56796E+02    0.3867108170588069
  27    1.51235E+02    0.3729953027407277
  28    1.45863E+02    0.3597452602522880
  29    1.40634E+02    0.3468487202916583
  30    1.35548E+02    0.3343061884860941
  31    1.30598E+02    0.3220982482529132
  32    1.25816E+02    0.3103042712985149
  33    1.21174E+02    0.2988552459166602
  34    1.16690E+02    0.2877965927944630
  35    1.12317E+02    0.2770090814615064
  36    1.08086E+02    0.2665761197064387
  37    1.03942E+02    0.2563539574812314
  38    9.99490E+01    0.2465066296430427
  39    9.59955E+01    0.2367561083494440
  40    9.22304E+01    0.2274701112833677
  41    8.84368E+01    0.2181138514834356
  42    8.48858E+01    0.2093558470345716
  43    8.12507E+01    0.2003906852733094
  44    7.78800E+01    0.1920774783278132
  45    7.44013E+01    0.1834976818513578
  46    7.11947E+01    0.1755892752527469
  47    6.78219E+01    0.1672707852657817
  48    6.47771E+01    0.1597614222072481
  49    6.14756E+01    0.1516188455860779
  50    5.86103E+01    0.1445520767902002
  51    5.53304E+01    0.1364627971606154
  52    5.25794E+01    0.1296779946331605
  53    4.93784E+01    0.1217830556092516
  54    4.67225E+01    0.1152329687951664
  55    4.33462E+01    0.1069057712774581
  56    4.08230E+01    0.1006828184232763
  57    3.73478E+01    0.0921118210879017
  58    3.50456E+01    0.0864338385087901
  59    3.12795E+01    0.0771454201949281
  60    2.91754E+01    0.0719559555166943
  61    2.50215E+01    0.0617110737049581
  62    2.31651E+01    0.0571327855723953
  63    1.79876E+01    0.0443631821570288
  64    1.69843E+01    0.0418888997373717
