  # July 4, 2014 09:19:42
 # jmin,jmax    0   50
 # Eau     0.00200000
 # r0,ra,rb,rdel,tol,Bau,mu   3.5000  25.0000  25.0000   4.0000  1.0000E-03  3.0130E-07  6.8548E+03
 # parity bigJ  0  0        1  0        1  1        2  0        2  1        2  2        3  0        3  1        3  2        3  3
 # jmin,jmax,maxlamb are            0          50         100
 # j and jp are          23          33
 # lam  B-lambda(j,jp)  angle
#   10     65.0148      6.4518
#   11      3.6821     11.5674
#   12     19.3945     15.3252
#   13      1.6320     18.5723
#   14      9.4326     21.5444
#   15      0.8126     24.3459
#   16      5.5800     27.0333
#   17      0.3881     29.6411
#   18      3.5745     32.1919
#   19      0.2019     34.7018
#   20      2.6192     37.1827
#   21      0.1342     39.6436
#   22      2.0147     42.0917
#   23      0.1031     44.5329
#   24      1.5480     46.9723
#   25      0.0842     49.4143
#   26      1.2930     51.8627
#   27      0.0720     54.3213
#   28      1.0923     56.7933
#   29      0.0617     59.2821
#   30      0.8751     61.7909
#   31      0.0507     64.3228
#   32      0.7373     66.8812
#   33      0.0404     69.4695
#   34      0.6577     72.0912
#   35      0.0319     74.7501
#   36      0.5066     77.4504
#   37      0.0251     80.1965
#   38      0.3714     82.9933
#   39      0.0197     85.8465
#   40      0.3098     88.7622
#   41      0.0150     91.7476
#   42      0.2749     94.8107
#   43      0.0110     97.9613
#   44      0.2370    101.2104
#   45      0.0077    104.5718
#   46      0.1847    108.0619
#   47      0.0050    111.7012
#   48      0.1401    115.5157
#   49      0.0031    119.5394
#   50      0.1276    123.8179
#   51      0.0017    128.4155
#   52      0.1188    133.4274
#   53      0.0007    139.0062
#   54      0.0896    145.4263
#   55      0.0002    153.2888
#   56      0.0764    164.6748
   0    6.08490E+01    1.0000000000000000
   1    5.06044E+01    0.8316388658765674
   2    4.17166E+01    0.6855753983199725
   3    3.51209E+01    0.5771817062584405
   4    3.03459E+01    0.4987078135145923
   5    2.63199E+01    0.4325447400933257
   6    2.29361E+01    0.3769337957635471
   7    1.98451E+01    0.3261365303765507
   8    1.73574E+01    0.2852542889102864
   9    1.51489E+01    0.2489592431922772
  10    1.35259E+01    0.2222857434694073
  11    1.19674E+01    0.1966739935787134
  12    1.07572E+01    0.1767849905428535
  13    9.65982E+00    0.1587505886472437
  14    8.89528E+00    0.1461860242422614
  15    8.04393E+00    0.1321949344589038
  16    7.44980E+00    0.1224309417723155
  17    6.77305E+00    0.1113091588668913
  18    6.38752E+00    0.1049731901394852
  19    5.83869E+00    0.0959537795986153
  20    5.52202E+00    0.0907495397692052
  21    5.00288E+00    0.0822179936485860
  22    4.78547E+00    0.0786449098585922
  23    4.38067E+00    0.0719925233876134
  24    4.25397E+00    0.0699102419959437
  25    3.89082E+00    0.0639422218695326
  26    3.78768E+00    0.0622471990237004
  27    3.44979E+00    0.0566943068377929
  28    3.37642E+00    0.0554884763039996
  29    3.04329E+00    0.0500137346999488
  30    3.00834E+00    0.0494394626208598
  31    2.66741E+00    0.0438365047526605
  32    2.69272E+00    0.0442524361308262
  33    2.33581E+00    0.0383869122362429
  34    2.41392E+00    0.0396705822682296
  35    2.03558E+00    0.0334530197220113
  36    2.18113E+00    0.0358449907347078
  37    1.79478E+00    0.0294956219671914
  38    1.96240E+00    0.0322503153656402
  39    1.57596E+00    0.0258995258198835
  40    1.82631E+00    0.0300137712849328
  41    1.26027E+00    0.0207113713918976
  42    1.70582E+00    0.0280337048477995
  43    1.01776E+00    0.0167259748697521
  44    1.70455E+00    0.0280127030386137
  45    7.44075E-01    0.0122282152083719
  46    2.06631E+00    0.0339580343378703
