  # July 4, 2014 09:19:42
 # jmin,jmax    0   50
 # Eau     0.00200000
 # r0,ra,rb,rdel,tol,Bau,mu   3.5000  25.0000  25.0000   4.0000  1.0000E-03  3.0130E-07  6.8548E+03
 # parity bigJ  0  0        1  0        1  1        2  0        2  1        2  2        3  0        3  1        3  2        3  3
 # jmin,jmax,maxlamb are            0          50         100
 # j and jp are          16          39
 # lam  B-lambda(j,jp)  angle
#   23     12.8642     10.7343
#   24      0.1557     18.9755
#   25      4.9745     24.8680
#   26      0.1228     29.8462
#   27      3.1008     34.3186
#   28      0.0935     38.4703
#   29      2.2493     42.4037
#   30      0.0686     46.1831
#   31      1.6805     49.8518
#   32      0.0487     53.4416
#   33      1.2624     56.9766
#   34      0.0351     60.4761
#   35      1.0045     63.9564
#   36      0.0258     67.4314
#   37      0.8403     70.9139
#   38      0.0190     74.4159
#   39      0.7324     77.9490
#   40      0.0136     81.5252
#   41      0.6230     85.1565
#   42      0.0092     88.8565
#   43      0.4503     92.6397
#   44      0.0059     96.5230
#   45      0.2866    100.5261
#   46      0.0037    104.6729
#   47      0.2018    108.9931
#   48      0.0022    113.5245
#   49      0.1484    118.3179
#   50      0.0012    123.4440
#   51      0.0977    129.0070
#   52      0.0006    135.1734
#   53      0.0747    142.2422
#   54      0.0002    150.8686
#   55      0.0928    163.3232
   0    3.44533E+01    1.0000000000000000
   1    2.40395E+01    0.6977402089884440
   2    1.56054E+01    0.4529431803938583
   3    1.10116E+01    0.3196091702828818
   4    8.97126E+00    0.2603889611682705
   5    7.09896E+00    0.2060457332526684
   6    5.88328E+00    0.1707610597534824
   7    4.95260E+00    0.1437480997632075
   8    4.54663E+00    0.1319651159396093
   9    3.94316E+00    0.1144492790016620
  10    3.50039E+00    0.1015982015090279
  11    3.03592E+00    0.0881168173760121
  12    2.86064E+00    0.0830296142951360
  13    2.52677E+00    0.0733388521509590
  14    2.38654E+00    0.0692687280520900
  15    2.13638E+00    0.0620080635877861
  16    2.07049E+00    0.0600956121634441
  17    1.83419E+00    0.0532369552466682
  18    1.79282E+00    0.0520363026127815
  19    1.57354E+00    0.0456716143895239
  20    1.58890E+00    0.0461175143208436
  21    1.36399E+00    0.0395896131582561
  22    1.43264E+00    0.0415821618346483
  23    1.18658E+00    0.0344400952273176
  24    1.30959E+00    0.0380105010600086
  25    1.04671E+00    0.0303806464545125
  26    1.22626E+00    0.0355919069840867
  27    9.20484E-01    0.0267168648540066
  28    1.24187E+00    0.0360450643136125
  29    7.27968E-01    0.0211291263596408
  30    1.34956E+00    0.0391707698026416
  31    4.90405E-01    0.0142339004590111
  32    1.64579E+00    0.0477685640436460
