  # July 4, 2014 09:19:42
 # jmin,jmax    0   50
 # Eau     0.00200000
 # r0,ra,rb,rdel,tol,Bau,mu   3.5000  25.0000  25.0000   4.0000  1.0000E-03  3.0130E-07  6.8548E+03
 # parity bigJ  0  0        1  0        1  1        2  0        2  1        2  2        3  0        3  1        3  2        3  3
 # jmin,jmax,maxlamb are            0          50         100
 # j and jp are          24          25
 # lam  B-lambda(j,jp)  angle
#    1   1015.9654      2.2924
#    2      4.0322      5.1282
#    3    177.0050      7.6096
#    4      2.2265     10.0065
#    5     77.8653     12.3708
#    6      1.3879     14.7211
#    7     45.1169     17.0664
#    8      0.9775     19.4117
#    9     28.5570     21.7602
#   10      0.7280     24.1145
#   11     19.5262     26.4766
#   12      0.5404     28.8482
#   13     13.6904     31.2309
#   14      0.4095     33.6264
#   15      9.7705     36.0360
#   16      0.3261     38.4615
#   17      7.1328     40.9043
#   18      0.2598     43.3660
#   19      5.3298     45.8485
#   20      0.2060     48.3536
#   21      4.0826     50.8831
#   22      0.1643     53.4391
#   23      3.1226     56.0239
#   24      0.1300     58.6398
#   25      2.4712     61.2895
#   26      0.1020     63.9758
#   27      1.9623     66.7018
#   28      0.0800     69.4710
#   29      1.5888     72.2873
#   30      0.0627     75.1550
#   31      1.3424     78.0789
#   32      0.0488     81.0644
#   33      1.1261     84.1179
#   34      0.0375     87.2465
#   35      0.9613     90.4587
#   36      0.0283     93.7643
#   37      0.8545     97.1750
#   38      0.0208    100.7048
#   39      0.7834    104.3709
#   40      0.0146    108.1949
#   41      0.7376    112.2038
#   42      0.0094    116.4333
#   43      0.6440    120.9314
#   44      0.0055    125.7654
#   45      0.4841    131.0354
#   46      0.0030    136.9019
#   47      0.3819    143.6532
#   48      0.0014    151.9218
#   49      0.5142    163.8979
   0    1.87615E+02    1.0000000000000000
   1    1.57342E+02    0.8386439092673607
   2    1.35807E+02    0.7238594158383458
   3    1.17927E+02    0.6285550168432612
   4    1.04870E+02    0.5589614317847525
   5    9.35285E+01    0.4985120604243704
   6    8.62562E+01    0.4597505084169146
   7    7.90051E+01    0.4211017945190274
   8    7.41699E+01    0.3953300016658791
   9    6.92882E+01    0.3693101992727305
  10    6.58313E+01    0.3508844747120945
  11    6.20694E+01    0.3308336642001406
  12    5.95340E+01    0.3173198108526658
  13    5.64818E+01    0.3010513135049255
  14    5.44397E+01    0.2901669312975588
  15    5.18403E+01    0.2763114717082529
  16    5.01764E+01    0.2674431860023188
  17    4.79097E+01    0.2553615214871781
  18    4.65714E+01    0.2482281241300278
  19    4.45083E+01    0.2372318152416804
  20    4.34605E+01    0.2316471276027648
  21    4.15542E+01    0.2214861693831385
  22    4.07561E+01    0.2172320515770700
  23    3.88941E+01    0.2073075493849318
  24    3.82981E+01    0.2041312357225228
  25    3.64958E+01    0.1945244611632412
  26    3.60843E+01    0.1923314446138993
  27    3.43332E+01    0.1829981202681842
  28    3.40406E+01    0.1814384785992084
  29    3.23419E+01    0.1723842996279655
  30    3.21820E+01    0.1715318314260680
  31    3.05467E+01    0.1628155735002503
  32    3.05297E+01    0.1627247688817915
  33    2.89340E+01    0.1542199125357650
  34    2.90482E+01    0.1548285445114472
  35    2.74217E+01    0.1461593120654517
  36    2.77587E+01    0.1479552037652940
  37    2.60363E+01    0.1387749027620944
  38    2.65768E+01    0.1416560616438737
  39    2.46658E+01    0.1314701165335150
  40    2.55335E+01    0.1360952408575511
  41    2.32881E+01    0.1241271473988943
  42    2.46978E+01    0.1316408131971160
  43    2.18410E+01    0.1164135577796196
  44    2.43777E+01    0.1299342563400129
  45    2.03068E+01    0.1082363189047925
  46    2.53446E+01    0.1350882158695429
  47    1.78125E+01    0.0949415285762814
  48    3.31755E+01    0.1768274162200201
