  # July 4, 2014 09:19:42
 # jmin,jmax    0   50
 # Eau     0.00200000
 # r0,ra,rb,rdel,tol,Bau,mu   3.5000  25.0000  25.0000   4.0000  1.0000E-03  3.0130E-07  6.8548E+03
 # parity bigJ  0  0        1  0        1  1        2  0        2  1        2  2        3  0        3  1        3  2        3  3
 # jmin,jmax,maxlamb are            0          50         100
 # j and jp are          28          35
 # lam  B-lambda(j,jp)  angle
#    7    131.2474      4.7636
#    8      3.4055      8.6457
#    9     50.6467     11.5533
#   10      2.2129     14.1046
#   11     29.5828     16.4681
#   12      1.6527     18.7172
#   13     19.0584     20.8908
#   14      1.2789     23.0123
#   15     13.0062     25.0970
#   16      0.9663     27.1553
#   17      9.3476     29.1948
#   18      0.6968     31.2214
#   19      6.7627     33.2395
#   20      0.5102     35.2527
#   21      4.8394     37.2641
#   22      0.3776     39.2763
#   23      3.6649     41.2913
#   24      0.2790     43.3114
#   25      2.8397     45.3382
#   26      0.2108     47.3735
#   27      2.1538     49.4190
#   28      0.1606     51.4761
#   29      1.7397     53.5465
#   30      0.1228     55.6316
#   31      1.4215     57.7331
#   32      0.0949     59.8525
#   33      1.1408     61.9915
#   34      0.0736     64.1518
#   35      0.9456     66.3351
#   36      0.0570     68.5434
#   37      0.8037     70.7788
#   38      0.0432     73.0434
#   39      0.7068     75.3395
#   40      0.0306     77.6698
#   41      0.5903     80.0370
#   42      0.0200     82.4444
#   43      0.4080     84.8952
#   44      0.0128     87.3934
#   45      0.2543     89.9434
#   46      0.0082     92.5499
#   47      0.1761     95.2185
#   48      0.0050     97.9558
#   49      0.1178    100.7691
#   50      0.0029    103.6673
#   51      0.0686    106.6608
#   52      0.0017    109.7620
#   53      0.0454    112.9863
#   54      0.0008    116.3528
#   55      0.0309    119.8858
#   56      0.0003    123.6169
#   57      0.0151    127.5887
#   58      0.0001    131.8613
#   59      0.0052    136.5237
#   60      0.0000    141.7186
#   61      0.0021    147.7024
#   62      0.0000    155.0369
#   63      0.0015    165.6648
   0    1.05563E+02    1.0000000000000000
   1    9.24483E+01    0.8757633590103722
   2    7.53151E+01    0.7134602136313507
   3    6.12550E+01    0.5802694553154137
   4    5.09633E+01    0.4827756248129302
   5    4.27938E+01    0.4053864855962998
   6    3.60322E+01    0.3413334047168188
   7    3.07481E+01    0.2912772922583626
   8    2.68659E+01    0.2545005287592147
   9    2.38755E+01    0.2261732688592587
  10    2.13671E+01    0.2024102492680105
  11    1.92713E+01    0.1825573575731292
  12    1.75992E+01    0.1667172377248056
  13    1.62345E+01    0.1537892516008275
  14    1.50299E+01    0.1423784954805208
  15    1.39182E+01    0.1318473254890786
  16    1.29677E+01    0.1228427600269343
  17    1.21926E+01    0.1155001756579131
  18    1.15096E+01    0.1090308147419682
  19    1.08617E+01    0.1028925559460628
  20    1.02998E+01    0.0975704698178830
  21    9.82672E+00    0.0930886090038240
  22    9.41044E+00    0.0891451932796613
  23    9.01210E+00    0.0853717149128074
  24    8.65159E+00    0.0819566118560523
  25    8.29817E+00    0.0786086074898401
  26    7.96906E+00    0.0754909507843760
  27    7.63398E+00    0.0723167234490169
  28    7.36291E+00    0.0697488774460973
  29    7.09653E+00    0.0672255081937467
  30    6.90467E+00    0.0654079830046388
  31    6.67145E+00    0.0631986612517708
  32    6.50517E+00    0.0616235689456782
  33    6.27815E+00    0.0594730037038668
  34    6.13448E+00    0.0581119405810548
  35    5.92756E+00    0.0561518596428592
  36    5.82100E+00    0.0551424129002328
  37    5.61742E+00    0.0532138827755510
  38    5.55962E+00    0.0526663664862690
  39    5.33016E+00    0.0504926468177023
  40    5.32389E+00    0.0504332524172873
  41    5.07761E+00    0.0481002773049531
  42    5.10753E+00    0.0483836317415928
  43    4.83436E+00    0.0457958865223626
  44    4.95671E+00    0.0469549733000502
  45    4.53993E+00    0.0430068308905673
  46    4.84744E+00    0.0459198181132318
  47    4.27233E+00    0.0404718403685554
  48    4.76364E+00    0.0451259534342338
  49    4.00594E+00    0.0379482868698709
  50    4.57161E+00    0.0433069126193047
  51    3.65968E+00    0.0346682159596080
  52    4.49110E+00    0.0425442265118019
  53    3.32953E+00    0.0315406343629698
  54    4.60616E+00    0.0436341524861837
  55    2.81312E+00    0.0266487487949604
  56    5.51053E+00    0.0522012663343421
