  # July 4, 2014 09:19:42
 # jmin,jmax    0   50
 # Eau     0.00200000
 # r0,ra,rb,rdel,tol,Bau,mu   3.5000  25.0000  25.0000   4.0000  1.0000E-03  3.0130E-07  6.8548E+03
 # parity bigJ  0  0        1  0        1  1        2  0        2  1        2  2        3  0        3  1        3  2        3  3
 # jmin,jmax,maxlamb are            0          50         100
 # j and jp are          28          34
 # lam  B-lambda(j,jp)  angle
#    6    262.5071      4.4741
#    7     13.1714      8.1777
#    8     66.6881     10.9801
#    9      6.6366     13.4588
#   10     28.4314     15.7691
#   11      3.2747     17.9781
#   12     14.7391     20.1212
#   13      1.8409     22.2195
#   14      8.5447     24.2866
#   15      1.1764     26.3318
#   16      5.5609     28.3621
#   17      0.7924     30.3824
#   18      3.8165     32.3968
#   19      0.5419     34.4085
#   20      2.8333     36.4203
#   21      0.3731     38.4344
#   22      2.1810     40.4529
#   23      0.2498     42.4776
#   24      1.6807     44.5101
#   25      0.1643     46.5522
#   26      1.3399     48.6052
#   27      0.1155     50.6707
#   28      1.0919     52.7501
#   29      0.0877     54.8449
#   30      0.8737     56.9567
#   31      0.0696     59.0870
#   32      0.7623     61.2374
#   33      0.0565     63.4095
#   34      0.6623     65.6051
#   35      0.0454     67.8262
#   36      0.4936     70.0747
#   37      0.0362     72.3528
#   38      0.3716     74.6629
#   39      0.0286     77.0075
#   40      0.3133     79.3895
#   41      0.0219     81.8120
#   42      0.2733     84.2784
#   43      0.0161     86.7925
#   44      0.2242     89.3588
#   45      0.0113     91.9822
#   46      0.1629     94.6681
#   47      0.0076     97.4232
#   48      0.1236    100.2549
#   49      0.0048    103.1720
#   50      0.1102    106.1850
#   51      0.0026    109.3065
#   52      0.0847    112.5520
#   53      0.0011    115.9406
#   54      0.0467    119.4966
#   55      0.0004    123.2521
#   56      0.0219    127.2499
#   57      0.0002    131.5504
#   58      0.0114    136.2432
#   59      0.0000    141.4719
#   60      0.0057    147.4946
#   61      0.0000    154.8767
#   62      0.0028    165.5736
   0    1.18907E+02    1.0000000000000000
   1    1.09820E+02    0.9235712977569966
   2    9.84621E+01    0.8280561147212587
   3    8.87836E+01    0.7466610880829377
   4    8.04944E+01    0.6769493819484913
   5    7.30105E+01    0.6140108237210111
   6    6.62969E+01    0.5575498333681645
   7    6.01878E+01    0.5061732973342429
   8    5.46661E+01    0.4597361980198254
   9    4.97673E+01    0.4185380837525843
  10    4.54024E+01    0.3818294696314959
  11    4.14899E+01    0.3489258468043656
  12    3.80081E+01    0.3196439945300445
  13    3.48510E+01    0.2930931867418538
  14    3.20377E+01    0.2694337675766539
  15    2.96014E+01    0.2489451701699636
  16    2.74684E+01    0.2310064059764645
  17    2.55052E+01    0.2144965320645499
  18    2.37325E+01    0.1995880406437278
  19    2.21470E+01    0.1862540120266306
  20    2.07503E+01    0.1745079801716365
  21    1.94717E+01    0.1637553625074025
  22    1.83150E+01    0.1540272348129963
  23    1.72272E+01    0.1448793501420065
  24    1.62565E+01    0.1367155161725928
  25    1.53563E+01    0.1291450426015537
  26    1.45588E+01    0.1224381636069190
  27    1.37748E+01    0.1158450019360074
  28    1.30670E+01    0.1098921834839345
  29    1.23566E+01    0.1039180673950192
  30    1.17592E+01    0.0988939476991718
  31    1.11299E+01    0.0936010938558204
  32    1.06368E+01    0.0894547720358825
  33    1.00466E+01    0.0844910681424893
  34    9.63428E+00    0.0810233021620021
  35    9.07401E+00    0.0763115394359198
  36    8.72191E+00    0.0733503689009950
  37    8.19036E+00    0.0688800848468541
  38    7.87316E+00    0.0662124488434461
  39    7.36339E+00    0.0619254023808333
  40    7.09351E+00    0.0596556630543283
  41    6.58011E+00    0.0553380291389318
  42    6.38180E+00    0.0536703046778246
  43    5.85913E+00    0.0492747330090184
  44    5.74766E+00    0.0483372581689711
  45    5.18690E+00    0.0436213161878128
  46    5.13807E+00    0.0432106774171464
  47    4.59518E+00    0.0386450203377950
  48    4.57707E+00    0.0384927154700214
  49    3.92410E+00    0.0330012636238012
  50    4.08668E+00    0.0343686069342785
  51    3.27408E+00    0.0275346682442323
  52    3.61716E+00    0.0304199219988766
  53    2.61470E+00    0.0219893340589228
  54    3.21828E+00    0.0270653816975879
  55    1.81512E+00    0.0152649396081839
  56    3.29954E+00    0.0277487850622964
