  # July 4, 2014 09:19:42
 # jmin,jmax    0   50
 # Eau     0.00200000
 # r0,ra,rb,rdel,tol,Bau,mu   3.5000  25.0000  25.0000   4.0000  1.0000E-03  3.0130E-07  6.8548E+03
 # parity bigJ  0  0        1  0        1  1        2  0        2  1        2  2        3  0        3  1        3  2        3  3
 # jmin,jmax,maxlamb are            0          50         100
 # j and jp are          32          37
 # lam  B-lambda(j,jp)  angle
#    5    205.8313      3.6690
#    6      6.3098      6.7705
#    7     78.3615      9.1478
#    8      4.1086     11.2703
#    9     44.7308     13.2623
#   10      2.7265     15.1767
#   11     28.3560     17.0409
#   12      1.9762     18.8713
#   13     19.1430     20.6782
#   14      1.4945     22.4686
#   15     13.3421     24.2477
#   16      1.1519     26.0191
#   17      9.5954     27.7858
#   18      0.8894     29.5502
#   19      7.3708     31.3141
#   20      0.6792     33.0792
#   21      5.3264     34.8468
#   22      0.5327     36.6182
#   23      3.9290     38.3946
#   24      0.4130     40.1769
#   25      3.0405     41.9663
#   26      0.3097     43.7635
#   27      2.2856     45.5696
#   28      0.2322     47.3854
#   29      1.7965     49.2119
#   30      0.1731     51.0499
#   31      1.4371     52.9004
#   32      0.1284     54.7644
#   33      1.1523     56.6428
#   34      0.0982     58.5366
#   35      0.9378     60.4469
#   36      0.0756     62.3748
#   37      0.7864     64.3215
#   38      0.0547     66.2883
#   39      0.6893     68.2765
#   40      0.0366     70.2875
#   41      0.5429     72.3229
#   42      0.0237     74.3843
#   43      0.3507     76.4735
#   44      0.0154     78.5926
#   45      0.2230     80.7435
#   46      0.0099     82.9288
#   47      0.1528     85.1510
#   48      0.0060     87.4129
#   49      0.0906     89.7179
#   50      0.0036     92.0694
#   51      0.0516     94.4716
#   52      0.0020     96.9291
#   53      0.0355     99.4471
#   54      0.0009    102.0317
#   55      0.0209    104.6901
#   56      0.0003    107.4305
#   57      0.0080    110.2629
#   58      0.0001    113.1991
#   59      0.0025    116.2538
#   60      0.0000    119.4451
#   61      0.0009    122.7961
#   62      0.0000    126.3370
#   63      0.0004    130.1084
#   64      0.0000    134.1676
#   65      0.0001    138.5994
#   66      0.0000    143.5397
#   67      0.0000    149.2330
#   68      0.0000    156.2145
#   69      0.0000    166.3338
   0    1.18793E+02    1.0000000000000000
   1    1.07889E+02    0.9082061673812959
   2    9.18375E+01    0.7730859974515700
   3    7.67010E+01    0.6456674408306996
   4    6.47951E+01    0.5454434253116170
   5    5.54980E+01    0.4671811177122944
   6    4.78276E+01    0.4026117294260145
   7    4.14814E+01    0.3491895006910818
   8    3.64514E+01    0.3068468242835516
   9    3.25525E+01    0.2740258587894103
  10    2.93979E+01    0.2474704112609065
  11    2.66612E+01    0.2244330368017481
  12    2.42538E+01    0.2041676553077089
  13    2.22122E+01    0.1869814942614427
  14    2.05088E+01    0.1726427722295161
  15    1.90446E+01    0.1603167395798752
  16    1.77429E+01    0.1493594371535645
  17    1.65868E+01    0.1396271238243191
  18    1.55955E+01    0.1312821130111891
  19    1.47698E+01    0.1243314730095740
  20    1.40540E+01    0.1183066062166107
  21    1.33842E+01    0.1126675191603146
  22    1.27582E+01    0.1073984675526411
  23    1.22066E+01    0.1027545974392108
  24    1.17188E+01    0.0986489678103421
  25    1.12543E+01    0.0947382492867462
  26    1.08032E+01    0.0909407059837214
  27    1.03878E+01    0.0874443556640052
  28    1.00229E+01    0.0843723526112261
  29    9.70004E+00    0.0816546688266343
  30    9.41154E+00    0.0792261260195196
  31    9.15277E+00    0.0770477502998408
  32    8.91924E+00    0.0750819015670542
  33    8.69368E+00    0.0731831738988844
  34    8.46610E+00    0.0712674002611439
  35    8.23131E+00    0.0692909477535942
  36    8.00290E+00    0.0673681733963147
  37    7.78912E+00    0.0655686314230711
  38    7.60450E+00    0.0640145174906063
  39    7.43630E+00    0.0625986156042140
  40    7.30075E+00    0.0614575068104627
  41    7.15020E+00    0.0601902105008131
  42    7.04077E+00    0.0592690038460945
  43    6.88682E+00    0.0579731020043821
  44    6.78658E+00    0.0571292275015893
  45    6.63820E+00    0.0558802168686568
  46    6.55208E+00    0.0551552099669447
  47    6.39479E+00    0.0538312013957681
  48    6.36436E+00    0.0535750147759471
  49    6.17715E+00    0.0519991129065894
  50    6.20422E+00    0.0522269928724440
  51    6.02908E+00    0.0507526139908401
  52    6.12150E+00    0.0515306506463476
  53    5.81266E+00    0.0489308130826803
  54    6.04326E+00    0.0508719686799018
  55    5.49577E+00    0.0462632327632815
  56    5.93918E+00    0.0499958701626193
  57    5.29989E+00    0.0446143522390559
  58    5.95383E+00    0.0501192061467136
  59    5.11593E+00    0.0430657272891295
  60    5.96724E+00    0.0502321006402539
  61    4.70678E+00    0.0396215238425825
  62    6.06908E+00    0.0510893706694959
  63    4.04956E+00    0.0340890828955120
  64    7.57523E+00    0.0637680756487367
