  # July 4, 2014 09:19:42
 # jmin,jmax    0   50
 # Eau     0.00200000
 # r0,ra,rb,rdel,tol,Bau,mu   3.5000  25.0000  25.0000   4.0000  1.0000E-03  3.0130E-07  6.8548E+03
 # parity bigJ  0  0        1  0        1  1        2  0        2  1        2  2        3  0        3  1        3  2        3  3
 # jmin,jmax,maxlamb are            0          50         100
 # j and jp are          29          38
 # lam  B-lambda(j,jp)  angle
#    9     95.2391      5.0976
#   10      3.7196      9.1635
#   11     39.8442     12.1634
#   12      2.2294     14.7643
#   13     23.3317     17.1505
#   14      1.5605     19.4032
#   15     15.3451     21.5661
#   16      1.1538     23.6657
#   17     10.4591     25.7192
#   18      0.8538     27.7387
#   19      7.5919     29.7329
#   20      0.6974     31.7085
#   21      5.6448     33.6706
#   22      0.6060     35.6233
#   23      4.2312     37.5700
#   24      0.4882     39.5137
#   25      3.1272     41.4568
#   26      0.3424     43.4014
#   27      2.2751     45.3496
#   28      0.2293     47.3030
#   29      1.8048     49.2635
#   30      0.1642     51.2326
#   31      1.4640     53.2117
#   32      0.1216     55.2025
#   33      1.1771     57.2063
#   34      0.0898     59.2247
#   35      0.9633     61.2591
#   36      0.0678     63.3112
#   37      0.8031     65.3824
#   38      0.0505     67.4745
#   39      0.6959     69.5893
#   40      0.0346     71.7285
#   41      0.5552     73.8941
#   42      0.0220     76.0884
#   43      0.3654     78.3136
#   44      0.0141     80.5721
#   45      0.2311     82.8669
#   46      0.0090     85.2008
#   47      0.1595     87.5772
#   48      0.0055     90.0000
#   49      0.0976     92.4733
#   50      0.0033     95.0018
#   51      0.0553     97.5910
#   52      0.0018    100.2473
#   53      0.0377    102.9777
#   54      0.0009    105.7910
#   55      0.0231    108.6972
#   56      0.0003    111.7085
#   57      0.0095    114.8398
#   58      0.0001    118.1097
#   59      0.0029    121.5419
#   60      0.0000    125.1670
#   61      0.0011    129.0268
#   62      0.0000    133.1794
#   63      0.0005    137.7117
#   64      0.0000    142.7622
#   65      0.0001    148.5807
#   66      0.0000    155.7135
#   67      0.0000    166.0497
   0    9.22752E+01    1.0000000000000000
   1    8.16392E+01    0.8847359553907516
   2    6.66176E+01    0.7219443867576992
   3    5.33005E+01    0.5776253323119850
   4    4.34690E+01    0.4710800114856896
   5    3.61052E+01    0.3912775947344332
   6    3.01951E+01    0.3272286894890059
   7    2.54932E+01    0.2762731355226238
   8    2.19779E+01    0.2381776099864386
   9    1.94048E+01    0.2102926778451462
  10    1.73562E+01    0.1880912061819412
  11    1.55547E+01    0.1685686354054191
  12    1.39816E+01    0.1515209681415322
  13    1.26862E+01    0.1374822047740241
  14    1.16400E+01    0.1261444878920976
  15    1.07716E+01    0.1167337925557829
  16    1.00304E+01    0.1087010469035615
  17    9.40922E+00    0.1019690327762314
  18    8.91752E+00    0.0966404826161685
  19    8.51120E+00    0.0922370538434681
  20    8.11017E+00    0.0878910973093496
  21    7.69419E+00    0.0833830283204755
  22    7.31431E+00    0.0792661954135384
  23    6.99807E+00    0.0758390644820491
  24    6.72591E+00    0.0728896260304819
  25    6.47706E+00    0.0701928030086615
  26    6.25715E+00    0.0678096151086006
  27    6.06184E+00    0.0656930056923917
  28    5.87909E+00    0.0637125241226593
  29    5.69720E+00    0.0617414082020192
  30    5.52755E+00    0.0599028463622080
  31    5.37470E+00    0.0582464257118362
  32    5.24289E+00    0.0568179630766179
  33    5.11479E+00    0.0554297153522515
  34    4.99167E+00    0.0540954419084271
  35    4.85334E+00    0.0525962920993809
  36    4.73071E+00    0.0512673960589578
  37    4.58430E+00    0.0496807414973029
  38    4.48205E+00    0.0485726513066906
  39    4.33867E+00    0.0470187983326375
  40    4.25576E+00    0.0461202936961959
  41    4.11947E+00    0.0446432715134751
  42    4.04759E+00    0.0438643405510784
  43    3.90536E+00    0.0423229701010349
  44    3.87464E+00    0.0419900417186152
  45    3.69765E+00    0.0400719219919211
  46    3.72417E+00    0.0403593685972160
  47    3.52704E+00    0.0382229912289789
  48    3.57138E+00    0.0387035083416766
  49    3.27542E+00    0.0354961535777446
  50    3.46032E+00    0.0374999403322466
  51    2.97462E+00    0.0322363370179736
  52    3.38850E+00    0.0367216076631411
  53    2.69278E+00    0.0291820162865584
  54    3.27023E+00    0.0354399643248687
  55    2.36866E+00    0.0256695370054489
  56    3.32181E+00    0.0359988821034763
  57    2.01096E+00    0.0217930543833166
  58    3.84284E+00    0.0416454342708001
