  # July 4, 2014 09:19:42
 # jmin,jmax    0   50
 # Eau     0.00200000
 # r0,ra,rb,rdel,tol,Bau,mu   3.5000  25.0000  25.0000   4.0000  1.0000E-03  3.0130E-07  6.8548E+03
 # parity bigJ  0  0        1  0        1  1        2  0        2  1        2  2        3  0        3  1        3  2        3  3
 # jmin,jmax,maxlamb are            0          50         100
 # j and jp are          29          43
 # lam  B-lambda(j,jp)  angle
#   14     31.0635      5.9797
#   15      4.1281     10.6212
#   16     10.4384     13.9761
#   17      2.4558     16.8344
#   18      6.1662     19.4184
#   19      1.6568     21.8276
#   20      4.2116     24.1163
#   21      1.2033     26.3176
#   22      2.9081     28.4537
#   23      0.9239     30.5399
#   24      2.2604     32.5876
#   25      0.7086     34.6054
#   26      1.8852     36.6000
#   27      0.4997     38.5768
#   28      1.5079     40.5403
#   29      0.3074     42.4942
#   30      1.3252     44.4418
#   31      0.1707     46.3857
#   32      1.1601     48.3286
#   33      0.0994     50.2725
#   34      0.8241     52.2197
#   35      0.0688     54.1719
#   36      0.5511     56.1310
#   37      0.0538     58.0988
#   38      0.4186     60.0768
#   39      0.0427     62.0669
#   40      0.3433     64.0706
#   41      0.0319     66.0897
#   42      0.2781     68.1258
#   43      0.0220     70.1807
#   44      0.2010     72.2563
#   45      0.0146     74.3545
#   46      0.1455     76.4773
#   47      0.0095     78.6269
#   48      0.1240     80.8056
#   49      0.0054     83.0160
#   50      0.0933     85.2608
#   51      0.0025     87.5430
#   52      0.0493     89.8660
#   53      0.0011     92.2335
#   54      0.0208     94.6496
#   55      0.0004     97.1190
#   56      0.0094     99.6471
#   57      0.0002    102.2400
#   58      0.0040    104.9048
#   59      0.0000    107.6499
#   60      0.0011    110.4853
#   61      0.0000    113.4227
#   62      0.0002    116.4769
#   63      0.0000    119.6659
#   64      0.0000    123.0127
#   65      0.0000    126.5474
#   66      0.0000    130.3106
#   67      0.0000    134.3591
#   68      0.0000    138.7774
#   69      0.0000    143.7007
#   70      0.0000    149.3723
#   71      0.0000    156.3247
#   72      0.0000    166.3986
   0    4.13932E+01    1.0000000000000000
   1    3.63852E+01    0.8790138062800082
   2    2.91099E+01    0.7032524211856542
   3    2.25236E+01    0.5441378512907552
   4    1.77911E+01    0.4298085666406536
   5    1.45713E+01    0.3520228202278491
   6    1.22835E+01    0.2967517614031268
   7    1.06216E+01    0.2566035271819850
   8    9.36055E+00    0.2261373588050957
   9    8.27252E+00    0.1998521731018443
  10    7.26476E+00    0.1755062467733824
  11    6.38765E+00    0.1543163576996198
  12    5.68848E+00    0.1374255386279478
  13    5.14181E+00    0.1242188501219984
  14    4.70149E+00    0.1135811856208250
  15    4.33524E+00    0.1047332388579652
  16    4.00305E+00    0.0967078803787986
  17    3.66770E+00    0.0886062969284299
  18    3.34206E+00    0.0807393408094998
  19    3.07515E+00    0.0742912747493377
  20    2.87817E+00    0.0695324055240596
  21    2.70535E+00    0.0653574608088184
  22    2.51546E+00    0.0607699302574502
  23    2.31394E+00    0.0559015792116640
  24    2.12777E+00    0.0514038062728996
  25    1.97132E+00    0.0476243413514613
  26    1.84648E+00    0.0446083133658806
  27    1.75126E+00    0.0423078751109881
  28    1.67625E+00    0.0404957476324935
  29    1.60413E+00    0.0387535844585136
  30    1.52241E+00    0.0367791355923696
  31    1.43263E+00    0.0346101651672538
  32    1.34551E+00    0.0325056818871461
  33    1.26919E+00    0.0306619067215751
  34    1.20456E+00    0.0291003990472086
  35    1.14766E+00    0.0277258540174767
  36    1.09484E+00    0.0264498537600637
  37    1.04464E+00    0.0252370985893344
  38    9.97824E-01    0.0241059853811516
  39    9.54629E-01    0.0230624566694005
  40    9.17740E-01    0.0221712887451857
  41    8.81571E-01    0.0212974935762062
  42    8.56005E-01    0.0206798441180807
  43    8.23596E-01    0.0198968942765023
  44    8.05138E-01    0.0194509654807642
  45    7.77841E-01    0.0187915141871493
  46    7.64404E-01    0.0184669134299151
  47    7.23418E-01    0.0174767302916257
  48    7.41053E-01    0.0179027699140970
  49    6.32721E-01    0.0152856389221879
  50    6.70358E-01    0.0161948825193709
  51    5.31629E-01    0.0128433878788965
  52    6.22093E-01    0.0150288675499642
  53    4.96807E-01    0.0120021469993057
  54    6.68284E-01    0.0161447802013728
  55    3.80602E-01    0.0091948005110855
  56    6.32138E-01    0.0152715571661851
  57    3.71396E-01    0.0089723971566096
  58    1.21755E+00    0.0294143463643389
