  # July 4, 2014 09:19:42
 # jmin,jmax    0   50
 # Eau     0.00200000
 # r0,ra,rb,rdel,tol,Bau,mu   3.5000  25.0000  25.0000   4.0000  1.0000E-03  3.0130E-07  6.8548E+03
 # parity bigJ  0  0        1  0        1  1        2  0        2  1        2  2        3  0        3  1        3  2        3  3
 # jmin,jmax,maxlamb are            0          50         100
 # j and jp are          27          30
 # lam  B-lambda(j,jp)  angle
#    3    329.6583      3.4261
#    4      3.4837      6.5653
#    5    101.3861      9.0763
#    6      2.4257     11.3848
#    7     55.1137     13.5965
#    8      1.6593     15.7544
#    9     34.3142     17.8801
#   10      1.1610     19.9862
#   11     22.8129     22.0806
#   12      0.8995     24.1686
#   13     15.6148     26.2541
#   14      0.7145     28.3402
#   15     11.0849     30.4292
#   16      0.5607     32.5232
#   17      8.0564     34.6239
#   18      0.4255     36.7329
#   19      5.9562     38.8516
#   20      0.3207     40.9816
#   21      4.4906     43.1240
#   22      0.2492     45.2803
#   23      3.4162     47.4519
#   24      0.2004     49.6402
#   25      2.6679     51.8465
#   26      0.1594     54.0724
#   27      2.0590     56.3194
#   28      0.1245     58.5893
#   29      1.6563     60.8837
#   30      0.0977     63.2046
#   31      1.3758     65.5540
#   32      0.0766     67.9342
#   33      1.1231     70.3475
#   34      0.0595     72.7965
#   35      0.9390     75.2842
#   36      0.0456     77.8137
#   37      0.8095     80.3886
#   38      0.0340     83.0129
#   39      0.7199     85.6911
#   40      0.0242     88.4282
#   41      0.6347     91.2301
#   42      0.0161     94.1034
#   43      0.4804     97.0560
#   44      0.0101    100.0969
#   45      0.3082    103.2371
#   46      0.0063    106.4896
#   47      0.2099    109.8704
#   48      0.0039    113.3994
#   49      0.1563    117.1020
#   50      0.0022    121.0113
#   51      0.1036    125.1718
#   52      0.0012    129.6462
#   53      0.0708    134.5276
#   54      0.0005    139.9652
#   55      0.0598    146.2271
#   56      0.0002    153.9008
#   57      0.0602    165.0192
   0    1.41769E+02    1.0000000000000000
   1    1.22691E+02    0.8654313535890112
   2    1.01799E+02    0.7180641689778562
   3    8.57370E+01    0.6047661033606299
   4    7.35806E+01    0.5190182384112998
   5    6.32228E+01    0.4459567751223970
   6    5.51478E+01    0.3889980302590108
   7    4.89527E+01    0.3452992178058610
   8    4.40931E+01    0.3110207748390315
   9    3.98355E+01    0.2809887971757807
  10    3.64222E+01    0.2569123574935269
  11    3.35666E+01    0.2367701963700268
  12    3.11931E+01    0.2200276002018970
  13    2.89518E+01    0.2042182936204175
  14    2.71760E+01    0.1916925140769994
  15    2.55474E+01    0.1802046615682784
  16    2.41549E+01    0.1703823850161165
  17    2.27804E+01    0.1606865573054563
  18    2.16833E+01    0.1529483448208302
  19    2.05746E+01    0.1451278662723086
  20    1.96769E+01    0.1387953996089460
  21    1.87369E+01    0.1321652571712567
  22    1.79886E+01    0.1268868673904614
  23    1.71503E+01    0.1209735563910627
  24    1.65197E+01    0.1165256610531279
  25    1.57916E+01    0.1113895765816027
  26    1.52965E+01    0.1078975812406799
  27    1.46260E+01    0.1031680725254250
  28    1.42207E+01    0.1003092875036032
  29    1.35895E+01    0.0958569595771122
  30    1.32862E+01    0.0937173157860987
  31    1.27043E+01    0.0896128437604832
  32    1.24772E+01    0.0880108678386230
  33    1.19088E+01    0.0840017560854375
  34    1.17614E+01    0.0829617916655251
  35    1.11614E+01    0.0787297679694084
  36    1.11723E+01    0.0788062944959280
  37    1.04875E+01    0.0739760749886991
  38    1.06930E+01    0.0754253378010078
  39    9.91514E+00    0.0699387754770084
  40    1.02676E+01    0.0724247027894041
  41    9.42927E+00    0.0665115780253116
  42    9.92911E+00    0.0700373324078014
  43    9.06244E+00    0.0639240402601214
  44    9.66979E+00    0.0682081098416419
  45    8.70235E+00    0.0613840723321687
  46    9.53459E+00    0.0672544706054140
  47    8.39073E+00    0.0591859852026192
  48    9.52442E+00    0.0671827641225971
  49    8.10749E+00    0.0571881075481372
  50    9.80322E+00    0.0691493011827023
  51    7.77183E+00    0.0548204282623462
  52    1.06947E+01    0.0754375841233993
  53    7.04788E+00    0.0497138630192798
  54    1.41380E+01    0.0997259446471609
