  # July 4, 2014 09:19:42
 # jmin,jmax    0   50
 # Eau     0.00200000
 # r0,ra,rb,rdel,tol,Bau,mu   3.5000  25.0000  25.0000   4.0000  1.0000E-03  3.0130E-07  6.8548E+03
 # parity bigJ  0  0        1  0        1  1        2  0        2  1        2  2        3  0        3  1        3  2        3  3
 # jmin,jmax,maxlamb are            0          50         100
 # j and jp are          28          46
 # lam  B-lambda(j,jp)  angle
#   18     19.1827      6.6706
#   19      1.0573     11.7935
#   20      7.0286     15.4645
#   21      0.8300     18.5680
#   22      4.3151     21.3550
#   23      0.6369     23.9382
#   24      3.0391     26.3796
#   25      0.4706     28.7173
#   26      2.1418     30.9765
#   27      0.3672     33.1753
#   28      1.6284     35.3267
#   29      0.2932     37.4409
#   30      1.4014     39.5258
#   31      0.2333     41.5876
#   32      1.2058     43.6317
#   33      0.1831     45.6625
#   34      0.9783     47.6837
#   35      0.1410     49.6987
#   36      0.8001     51.7104
#   37      0.1039     53.7214
#   38      0.6826     55.7343
#   39      0.0719     57.7512
#   40      0.5830     59.7743
#   41      0.0489     61.8057
#   42      0.4177     63.8473
#   43      0.0332     65.9012
#   44      0.2232     67.9693
#   45      0.0211     70.0537
#   46      0.1293     72.1563
#   47      0.0116     74.2792
#   48      0.1149     76.4247
#   49      0.0055     78.5951
#   50      0.0853     80.7929
#   51      0.0023     83.0206
#   52      0.0419     85.2812
#   53      0.0010     87.5777
#   54      0.0172     89.9135
#   55      0.0004     92.2925
#   56      0.0078     94.7188
#   57      0.0001     97.1973
#   58      0.0031     99.7332
#   59      0.0000    102.3328
#   60      0.0008    105.0033
#   61      0.0000    107.7529
#   62      0.0001    110.5917
#   63      0.0000    113.5316
#   64      0.0000    116.5871
#   65      0.0000    119.7763
#   66      0.0000    123.1223
#   67      0.0000    126.6550
#   68      0.0000    130.4148
#   69      0.0000    134.4586
#   70      0.0000    138.8705
#   71      0.0000    143.7855
#   72      0.0000    149.4462
#   73      0.0000    156.3835
#   74      0.0000    166.4334
   0    3.10602E+01    1.0000000000000000
   1    2.67795E+01    0.8621829017143832
   2    2.05400E+01    0.6612977891114601
   3    1.50291E+01    0.4838721223471737
   4    1.14755E+01    0.3694594639720912
   5    9.52297E+00    0.3065977610288658
   6    8.29272E+00    0.2669890285726589
   7    7.23634E+00    0.2329782986779350
   8    6.24011E+00    0.2009039034601769
   9    5.37658E+00    0.1731023399293751
  10    4.71837E+00    0.1519108749155681
  11    4.26567E+00    0.1373358121620705
  12    3.93789E+00    0.1267828217778219
  13    3.63460E+00    0.1170180298327844
  14    3.32382E+00    0.1070122068371568
  15    3.05356E+00    0.0983111101896782
  16    2.86462E+00    0.0922280781109428
  17    2.71865E+00    0.0875285466032995
  18    2.54087E+00    0.0818048002727543
  19    2.31666E+00    0.0745861792951322
  20    2.10578E+00    0.0677967662567823
  21    1.96033E+00    0.0631141449325609
  22    1.86632E+00    0.0600871884060866
  23    1.77812E+00    0.0572477087808356
  24    1.67890E+00    0.0540531253184675
  25    1.58455E+00    0.0510156413189861
  26    1.50702E+00    0.0485194005552660
  27    1.43829E+00    0.0463064823043606
  28    1.36702E+00    0.0440119006145121
  29    1.29364E+00    0.0416496030891200
  30    1.22566E+00    0.0394608965001738
  31    1.16661E+00    0.0375598177898318
  32    1.11400E+00    0.0358659091404095
  33    1.06417E+00    0.0342615694694183
  34    1.01607E+00    0.0327128246192108
  35    9.70575E-01    0.0312482509871435
  36    9.28904E-01    0.0299066040334978
  37    8.91258E-01    0.0286945942495070
  38    8.57433E-01    0.0276055805645581
  39    8.26828E-01    0.0266202337571392
  40    7.98921E-01    0.0257217471078785
  41    7.73439E-01    0.0249013264708310
  42    7.49866E-01    0.0241423925201094
  43    7.26396E-01    0.0233867412371768
  44    7.07805E-01    0.0227882150508860
  45    6.80149E-01    0.0218977948175133
  46    6.63066E-01    0.0213478080404209
  47    6.33095E-01    0.0203828652408407
  48    5.99765E-01    0.0193097780003975
  49    5.45057E-01    0.0175484315636523
  50    5.82207E-01    0.0187444936169683
  51    4.59740E-01    0.0148016185284925
  52    5.29708E-01    0.0170542551872356
  53    4.83661E-01    0.0155717507164691
  54    6.31605E-01    0.0203348885591625
  55    3.38208E-01    0.0108887978485187
  56    9.91702E-01    0.0319284346486693
