  # July 4, 2014 09:19:42
 # jmin,jmax    0   50
 # Eau     0.00200000
 # r0,ra,rb,rdel,tol,Bau,mu   3.5000  25.0000  25.0000   4.0000  1.0000E-03  3.0130E-07  6.8548E+03
 # parity bigJ  0  0        1  0        1  1        2  0        2  1        2  2        3  0        3  1        3  2        3  3
 # jmin,jmax,maxlamb are            0          50         100
 # j and jp are          13          45
 # lam  B-lambda(j,jp)  angle
#   32      3.5325     13.0249
#   33      0.0166     22.9995
#   34      1.4986     30.1042
#   35      0.0153     36.0901
#   36      0.8407     41.4581
#   37      0.0130     46.4364
#   38      0.5299     51.1526
#   39      0.0109     55.6873
#   40      0.3979     60.0965
#   41      0.0087     64.4218
#   42      0.3304     68.6960
#   43      0.0065     72.9468
#   44      0.2398     77.1985
#   45      0.0045     81.4740
#   46      0.1529     85.7956
#   47      0.0028     90.1867
#   48      0.1242     94.6725
#   49      0.0016     99.2819
#   50      0.1139    104.0491
#   51      0.0008    109.0167
#   52      0.0787    114.2402
#   53      0.0003    119.7959
#   54      0.0402    125.7952
#   55      0.0001    132.4150
#   56      0.0210    139.9722
#   57      0.0000    149.1595
#   58      0.0176    162.3814
   0    1.16606E+01    1.0000000000000000
   1    8.20696E+00    0.7038178153331701
   2    5.31478E+00    0.4557881070160751
   3    3.76097E+00    0.3225355640956891
   4    2.86490E+00    0.2456896092395963
   5    2.20942E+00    0.1894766585916119
   6    1.84445E+00    0.1581774378315306
   7    1.49524E+00    0.1282297231023282
   8    1.28162E+00    0.1099095620569022
   9    1.17551E+00    0.1008103226542161
  10    1.13502E+00    0.0973375990562870
  11    1.00615E+00    0.0862858135178073
  12    9.25905E-01    0.0794043578875838
  13    8.34576E-01    0.0715720606765722
  14    8.03195E-01    0.0688808894393139
  15    7.17085E-01    0.0614961856854656
  16    6.93008E-01    0.0594313905626092
  17    6.03126E-01    0.0517232702051366
  18    6.02855E-01    0.0516999721216207
  19    4.95378E-01    0.0424828913081171
  20    5.31430E-01    0.0455746964969521
  21    3.83618E-01    0.0328985128467682
  22    4.76258E-01    0.0408432013810271
  23    2.79677E-01    0.0239847104472418
  24    4.11475E-01    0.0352875017440893
  25    2.35859E-01    0.0202269815924170
  26    5.30695E-01    0.0455116723149153
