  # July 4, 2014 09:19:42
 # jmin,jmax    0   50
 # Eau     0.00200000
 # r0,ra,rb,rdel,tol,Bau,mu   3.5000  25.0000  25.0000   4.0000  1.0000E-03  3.0130E-07  6.8548E+03
 # parity bigJ  0  0        1  0        1  1        2  0        2  1        2  2        3  0        3  1        3  2        3  3
 # jmin,jmax,maxlamb are            0          50         100
 # j and jp are          32          38
 # lam  B-lambda(j,jp)  angle
#    6    278.5531      3.9664
#    7     19.5039      7.2480
#    8     74.2583      9.7303
#    9     10.2692     11.9247
#   10     31.2457     13.9690
#   11      5.1975     15.9225
#   12     16.3715     17.8165
#   13      3.0158     19.6696
#   14      9.9922     21.4936
#   15      1.9385     23.2969
#   16      6.3977     25.0852
#   17      1.4060     26.8631
#   18      4.4303     28.6338
#   19      1.0917     30.4001
#   20      3.5072     32.1643
#   21      0.8458     33.9281
#   22      2.7383     35.6932
#   23      0.6568     37.4610
#   24      2.1554     39.2328
#   25      0.5221     41.0097
#   26      1.6841     42.7928
#   27      0.3993     44.5832
#   28      1.2465     46.3818
#   29      0.2663     48.1895
#   30      0.9132     50.0075
#   31      0.1528     51.8365
#   32      0.7754     53.6776
#   33      0.0896     55.5318
#   34      0.6440     57.4000
#   35      0.0650     59.2833
#   36      0.4844     61.1829
#   37      0.0519     63.0997
#   38      0.3859     65.0351
#   39      0.0404     66.9902
#   40      0.3316     68.9665
#   41      0.0308     70.9653
#   42      0.2796     72.9883
#   43      0.0224     75.0371
#   44      0.2077     77.1134
#   45      0.0155     79.2193
#   46      0.1456     81.3568
#   47      0.0103     83.5284
#   48      0.1213     85.7367
#   49      0.0061     87.9844
#   50      0.0995     90.2748
#   51      0.0030     92.6115
#   52      0.0590     94.9986
#   53      0.0013     97.4405
#   54      0.0261     99.9427
#   55      0.0005    102.5110
#   56      0.0117    105.1527
#   57      0.0002    107.8758
#   58      0.0053    110.6904
#   59      0.0001    113.6082
#   60      0.0017    116.6438
#   61      0.0000    119.8152
#   62      0.0004    123.1453
#   63      0.0000    126.6642
#   64      0.0001    130.4123
#   65      0.0000    134.4464
#   66      0.0000    138.8509
#   67      0.0000    143.7609
#   68      0.0000    149.4193
#   69      0.0000    156.3581
#   70      0.0000    166.4156
   0    1.19943E+02    1.0000000000000000
   1    1.12697E+02    0.9395858545387525
   2    1.01979E+02    0.8502285446085672
   3    9.15723E+01    0.7634630221854127
   4    8.27422E+01    0.6898438621647007
   5    7.51455E+01    0.6265081907019536
   6    6.84708E+01    0.5708593986423032
   7    6.26559E+01    0.5223789138492680
   8    5.75120E+01    0.4794931439859685
   9    5.27943E+01    0.4401600151471610
  10    4.84081E+01    0.4035913717315365
  11    4.43575E+01    0.3698201266503908
  12    4.06456E+01    0.3388730277637313
  13    3.72942E+01    0.3109321728185371
  14    3.43364E+01    0.2862719520438567
  15    3.17412E+01    0.2646352548819802
  16    2.94263E+01    0.2453349040324341
  17    2.73468E+01    0.2279979574550200
  18    2.54932E+01    0.2125434427241508
  19    2.38207E+01    0.1985998438062387
  20    2.22719E+01    0.1856866527332486
  21    2.08460E+01    0.1737985787287345
  22    1.95754E+01    0.1632056268972534
  23    1.84527E+01    0.1538452081502350
  24    1.74333E+01    0.1453462067498176
  25    1.64875E+01    0.1374606627630033
  26    1.56137E+01    0.1301757585521235
  27    1.48170E+01    0.1235335838936561
  28    1.40984E+01    0.1175424397995760
  29    1.34533E+01    0.1121637120320836
  30    1.28676E+01    0.1072807540184191
  31    1.23192E+01    0.1027084669927630
  32    1.17906E+01    0.0983010589802338
  33    1.12770E+01    0.0940190481129952
  34    1.07836E+01    0.0899061554183567
  35    1.03137E+01    0.0859882832552940
  36    9.86846E+00    0.0822760188616809
  37    9.44035E+00    0.0787067630334350
  38    9.03448E+00    0.0753229024657596
  39    8.63947E+00    0.0720296202796260
  40    8.27225E+00    0.0689680119582272
  41    7.90920E+00    0.0659411044351848
  42    7.57130E+00    0.0631240189381442
  43    7.22708E+00    0.0602541080028776
  44    6.90927E+00    0.0576044710703890
  45    6.56351E+00    0.0547217589463099
  46    6.28930E+00    0.0524356223441166
  47    5.92613E+00    0.0494077804106705
  48    5.71454E+00    0.0476436549163728
  49    5.34860E+00    0.0445927461288727
  50    5.16219E+00    0.0430386010001486
  51    4.78648E+00    0.0399062165764612
  52    4.62396E+00    0.0385511731137647
  53    4.22141E+00    0.0351950016419777
  54    4.12965E+00    0.0344300170509393
  55    3.64056E+00    0.0303523442238578
  56    3.64591E+00    0.0303969367173757
  57    3.19196E+00    0.0266121961858306
  58    3.29071E+00    0.0274355442645453
  59    2.69722E+00    0.0224874374017468
  60    2.98998E+00    0.0249282682648133
  61    2.21791E+00    0.0184913388671749
  62    2.62516E+00    0.0218866911031768
  63    1.52861E+00    0.0127444165786517
  64    2.86051E+00    0.0238488069621493
