  # July 4, 2014 09:19:42
 # jmin,jmax    0   50
 # Eau     0.00200000
 # r0,ra,rb,rdel,tol,Bau,mu   3.5000  25.0000  25.0000   4.0000  1.0000E-03  3.0130E-07  6.8548E+03
 # parity bigJ  0  0        1  0        1  1        2  0        2  1        2  2        3  0        3  1        3  2        3  3
 # jmin,jmax,maxlamb are            0          50         100
 # j and jp are          24          41
 # lam  B-lambda(j,jp)  angle
#   17     31.3454      7.3993
#   18      1.7977     13.1030
#   19     12.6413     17.2012
#   20      1.1414     20.6754
#   21      7.5897     23.8034
#   22      0.7637     26.7101
#   23      5.4015     29.4640
#   24      0.5039     32.1074
#   25      3.8258     34.6683
#   26      0.3315     37.1668
#   27      2.6140     39.6176
#   28      0.2290     42.0320
#   29      2.0564     44.4190
#   30      0.1655     46.7859
#   31      1.6661     49.1388
#   32      0.1181     51.4830
#   33      1.2755     53.8230
#   34      0.0803     56.1630
#   35      0.9999     58.5067
#   36      0.0548     60.8576
#   37      0.8320     63.2190
#   38      0.0400     65.5942
#   39      0.7167     67.9863
#   40      0.0288     70.3985
#   41      0.5628     72.8340
#   42      0.0189     75.2963
#   43      0.3678     77.7887
#   44      0.0119     80.3151
#   45      0.2333     82.8794
#   46      0.0074     85.4859
#   47      0.1614     88.1395
#   48      0.0045     90.8455
#   49      0.0988     93.6099
#   50      0.0026     96.4395
#   51      0.0559     99.3420
#   52      0.0015    102.3267
#   53      0.0382    105.4042
#   54      0.0007    108.5875
#   55      0.0237    111.8922
#   56      0.0002    115.3378
#   57      0.0100    118.9490
#   58      0.0001    122.7580
#   59      0.0032    126.8080
#   60      0.0000    131.1600
#   61      0.0012    135.9041
#   62      0.0000    141.1848
#   63      0.0006    147.2619
#   64      0.0000    154.7042
#   65      0.0003    165.4803
   0    5.31630E+01    1.0000000000000000
   1    4.49130E+01    0.8448183305284009
   2    3.39680E+01    0.6389415379823985
   3    2.52503E+01    0.4749602966708744
   4    1.96607E+01    0.3698201609728335
   5    1.59293E+01    0.2996321511649993
   6    1.30550E+01    0.2455655972302817
   7    1.07919E+01    0.2029959479874619
   8    9.17605E+00    0.1726024148081741
   9    8.09893E+00    0.1523416930202375
  10    7.29251E+00    0.1371726984645643
  11    6.58125E+00    0.1237938270307924
  12    5.96402E+00    0.1121836933720914
  13    5.46654E+00    0.1028260362934320
  14    5.06781E+00    0.0953259222879738
  15    4.70225E+00    0.0884497531676057
  16    4.31758E+00    0.0812140744147533
  17    3.94180E+00    0.0741455354643529
  18    3.65747E+00    0.0687972806924504
  19    3.47470E+00    0.0653593848068942
  20    3.33567E+00    0.0627441955510216
  21    3.19536E+00    0.0601050355166117
  22    3.05887E+00    0.0575376880481329
  23    2.92268E+00    0.0549759006552535
  24    2.78119E+00    0.0523143952509863
  25    2.63046E+00    0.0494791848216410
  26    2.49161E+00    0.0468673558875272
  27    2.36708E+00    0.0445249572311834
  28    2.26463E+00    0.0425979866171779
  29    2.16324E+00    0.0406907323223363
  30    2.07783E+00    0.0390841770400498
  31    1.97651E+00    0.0371783222767467
  32    1.90489E+00    0.0358312224134604
  33    1.79953E+00    0.0338493584837807
  34    1.74885E+00    0.0328959685495688
  35    1.64751E+00    0.0309897547811435
  36    1.61965E+00    0.0304658240709901
  37    1.53616E+00    0.0288953861160690
  38    1.54079E+00    0.0289823372115450
  39    1.45105E+00    0.0272943385128501
  40    1.51798E+00    0.0285533370501384
  41    1.36552E+00    0.0256855231108240
  42    1.44185E+00    0.0271214053604434
  43    1.21001E+00    0.0227603658404865
  44    1.35813E+00    0.0255465192309927
  45    9.19708E-01    0.0172997840623526
  46    1.44016E+00    0.0270894833462066
  47    6.96958E-01    0.0131098536011413
  48    1.78829E+00    0.0336378645987328
