  # July 4, 2014 09:19:42
 # jmin,jmax    0   50
 # Eau     0.00200000
 # r0,ra,rb,rdel,tol,Bau,mu   3.5000  25.0000  25.0000   4.0000  1.0000E-03  3.0130E-07  6.8548E+03
 # parity bigJ  0  0        1  0        1  1        2  0        2  1        2  2        3  0        3  1        3  2        3  3
 # jmin,jmax,maxlamb are            0          50         100
 # j and jp are          17          44
 # lam  B-lambda(j,jp)  angle
#   27     10.5150     10.6400
#   28      0.1718     18.7670
#   29      4.4445     24.5529
#   30      0.1374     29.4207
#   31      2.6432     33.7767
#   32      0.1067     37.8052
#   33      1.8050     41.6081
#   34      0.0769     45.2493
#   35      1.4097     48.7719
#   36      0.0527     52.2071
#   37      1.1663     55.5786
#   38      0.0359     58.9052
#   39      0.9895     62.2023
#   40      0.0249     65.4830
#   41      0.7281     68.7591
#   42      0.0170     72.0413
#   43      0.4087     75.3396
#   44      0.0106     78.6641
#   45      0.2204     82.0245
#   46      0.0059     85.4314
#   47      0.1523     88.8958
#   48      0.0032     92.4298
#   49      0.0982     96.0471
#   50      0.0018     99.7635
#   51      0.0562    103.5977
#   52      0.0009    107.5722
#   53      0.0386    111.7155
#   54      0.0004    116.0638
#   55      0.0251    120.6659
#   56      0.0001    125.5896
#   57      0.0115    130.9352
#   58      0.0000    136.8628
#   59      0.0044    143.6601
#   60      0.0000    151.9575
#   61      0.0028    163.9388
   0    2.85151E+01    1.0000000000000000
   1    2.23174E+01    0.7826538541968699
   2    1.49030E+01    0.5226342863515969
   3    9.86920E+00    0.3461046436129454
   4    7.42598E+00    0.2604230826962705
   5    6.29091E+00    0.2206169879334883
   6    5.40675E+00    0.1896102749501089
   7    4.43662E+00    0.1555886105576680
   8    3.62020E+00    0.1269575386255578
   9    3.13193E+00    0.1098342066669340
  10    2.91242E+00    0.1021363239051477
  11    2.75064E+00    0.0964628059430590
  12    2.52591E+00    0.0885815390433140
  13    2.27096E+00    0.0796405771915756
  14    2.10276E+00    0.0737420670877622
  15    1.99422E+00    0.0699356890497985
  16    1.88658E+00    0.0661607964656352
  17    1.74456E+00    0.0611801417632179
  18    1.62672E+00    0.0570477441388662
  19    1.51877E+00    0.0532620800136336
  20    1.44636E+00    0.0507226908764743
  21    1.34973E+00    0.0473339437949833
  22    1.28876E+00    0.0451957906306752
  23    1.18565E+00    0.0415797029362016
  24    1.14055E+00    0.0399979988591105
  25    1.03292E+00    0.0362237293996921
  26    1.00413E+00    0.0352140763213006
  27    9.01185E-01    0.0316038128027961
  28    8.94646E-01    0.0313745098875795
  29    7.95377E-01    0.0278932233027128
  30    8.58577E-01    0.0301095889869703
  31    6.82999E-01    0.0239522074047919
  32    8.16378E-01    0.0286297090048872
  33    7.06371E-01    0.0247718487605075
  34    1.27027E+00    0.0445474519538842
