  # July 4, 2014 09:19:42
 # jmin,jmax    0   50
 # Eau     0.00200000
 # r0,ra,rb,rdel,tol,Bau,mu   3.5000  25.0000  25.0000   4.0000  1.0000E-03  3.0130E-07  6.8548E+03
 # parity bigJ  0  0        1  0        1  1        2  0        2  1        2  2        3  0        3  1        3  2        3  3
 # jmin,jmax,maxlamb are            0          50         100
 # j and jp are          28          29
 # lam  B-lambda(j,jp)  angle
#    1   1151.9056      1.9761
#    2      6.3237      4.4201
#    3    203.3660      6.5582
#    4      3.7502      8.6226
#    5     88.1074     10.6580
#    6      2.3907     12.6803
#    7     51.2948     14.6969
#    8      1.6429     16.7118
#    9     32.9846     18.7276
#   10      1.1116     20.7463
#   11     22.1874     22.7693
#   12      0.8704     24.7979
#   13     15.3145     26.8330
#   14      0.6943     28.8757
#   15     10.8868     30.9270
#   16      0.5444     32.9878
#   17      7.9526     35.0590
#   18      0.4169     37.1417
#   19      5.9208     39.2367
#   20      0.3189     41.3452
#   21      4.4707     43.4680
#   22      0.2515     45.6064
#   23      3.3945     47.7614
#   24      0.2026     49.9344
#   25      2.6512     52.1265
#   26      0.1603     54.3391
#   27      2.0509     56.5738
#   28      0.1251     58.8320
#   29      1.6522     61.1155
#   30      0.0983     63.4260
#   31      1.3735     65.7656
#   32      0.0770     68.1364
#   33      1.1220     70.5408
#   34      0.0598     72.9813
#   35      0.9386     75.4609
#   36      0.0458     77.9826
#   37      0.8096     80.5499
#   38      0.0342     83.1669
#   39      0.7200     85.8381
#   40      0.0244     88.5683
#   41      0.6351     91.3635
#   42      0.0162     94.2303
#   43      0.4813     97.1765
#   44      0.0102    100.2111
#   45      0.3089    103.3451
#   46      0.0064    106.5914
#   47      0.2102    109.9661
#   48      0.0039    113.4890
#   49      0.1566    117.1854
#   50      0.0022    121.0884
#   51      0.1039    125.2425
#   52      0.0012    129.7103
#   53      0.0710    134.5847
#   54      0.0005    140.0148
#   55      0.0600    146.2684
#   56      0.0002    153.9322
#   57      0.0605    165.0368
   0    1.81892E+02    1.0000000000000000
   1    1.62453E+02    0.8931304095206807
   2    1.41001E+02    0.7751926088625570
   3    1.24284E+02    0.6832874673307657
   4    1.11421E+02    0.6125696771913094
   5    1.00336E+02    0.5516242725923426
   6    9.15405E+01    0.5032687084996148
   7    8.46318E+01    0.4652867264365020
   8    7.90620E+01    0.4346650721875701
   9    7.41001E+01    0.4073858076109834
  10    6.99941E+01    0.3848118764758390
  11    6.64535E+01    0.3653464290003097
  12    6.34029E+01    0.3485748021033430
  13    6.04992E+01    0.3326109139426124
  14    5.80769E+01    0.3192938775993103
  15    5.58100E+01    0.3068306875605287
  16    5.37854E+01    0.2957001035636656
  17    5.17845E+01    0.2846995372902246
  18    5.00644E+01    0.2752425745096783
  19    4.83351E+01    0.2657355933017317
  20    4.68236E+01    0.2574254093337456
  21    4.52800E+01    0.2489391847671321
  22    4.39411E+01    0.2415783233369393
  23    4.25276E+01    0.2338072767604910
  24    4.13374E+01    0.2272634627123841
  25    4.00628E+01    0.2202560719698964
  26    3.90316E+01    0.2145866646356067
  27    3.78369E+01    0.2080186265479507
  28    3.69200E+01    0.2029775915329730
  29    3.57929E+01    0.1967814976603198
  30    3.50073E+01    0.1924619416744558
  31    3.39585E+01    0.1866959539194279
  32    3.32775E+01    0.1829522078695839
  33    3.22729E+01    0.1774290607889170
  34    3.17014E+01    0.1742871133172024
  35    3.06980E+01    0.1687703977536352
  36    3.03086E+01    0.1666299363499835
  37    2.92437E+01    0.1607753249618173
  38    2.90624E+01    0.1597785680109084
  39    2.79155E+01    0.1534733506670806
  40    2.78907E+01    0.1533365798126507
  41    2.66929E+01    0.1467517797477849
  42    2.68186E+01    0.1474423238267162
  43    2.55908E+01    0.1406923634556896
  44    2.58172E+01    0.1419373817280595
  45    2.45028E+01    0.1347110801907420
  46    2.49433E+01    0.1371327932588519
  47    2.34616E+01    0.1289864052998446
  48    2.41720E+01    0.1328923350612681
  49    2.24264E+01    0.1232955172364073
  50    2.35957E+01    0.1297235514510345
  51    2.13196E+01    0.1172101587349315
  52    2.34112E+01    0.1287094695605868
  53    1.99084E+01    0.1094520623998113
  54    2.43050E+01    0.1336234674611675
  55    1.78442E+01    0.0981035801723891
  56    3.23256E+01    0.1777188812278177
