  # July 4, 2014 09:19:42
 # jmin,jmax    0   50
 # Eau     0.00200000
 # r0,ra,rb,rdel,tol,Bau,mu   3.5000  25.0000  25.0000   4.0000  1.0000E-03  3.0130E-07  6.8548E+03
 # parity bigJ  0  0        1  0        1  1        2  0        2  1        2  2        3  0        3  1        3  2        3  3
 # jmin,jmax,maxlamb are            0          50         100
 # j and jp are          30          48
 # lam  B-lambda(j,jp)  angle
#   18     18.7347      6.3145
#   19      1.0547     11.1612
#   20      7.6761     14.6331
#   21      0.6442     17.5670
#   22      4.6103     20.2006
#   23      0.4512     22.6406
#   24      3.0929     24.9453
#   25      0.3430     27.1510
#   26      2.2168     29.2815
#   27      0.2902     31.3537
#   28      1.6094     33.3801
#   29      0.2378     35.3700
#   30      1.2259     37.3309
#   31      0.1921     39.2687
#   32      1.0071     41.1883
#   33      0.1551     43.0938
#   34      0.8132     44.9886
#   35      0.1215     46.8758
#   36      0.6275     48.7580
#   37      0.0900     50.6375
#   38      0.4919     52.5167
#   39      0.0610     54.3973
#   40      0.4015     56.2814
#   41      0.0356     58.1705
#   42      0.3115     60.0665
#   43      0.0175     61.9708
#   44      0.2579     63.8852
#   45      0.0089     65.8113
#   46      0.2458     67.7505
#   47      0.0054     69.7045
#   48      0.1968     71.6750
#   49      0.0030     73.6636
#   50      0.1089     75.6722
#   51      0.0014     77.7026
#   52      0.0443     79.7568
#   53      0.0006     81.8370
#   54      0.0174     83.9453
#   55      0.0003     86.0842
#   56      0.0071     88.2564
#   57      0.0001     90.4649
#   58      0.0022     92.7128
#   59      0.0000     95.0039
#   60      0.0005     97.3420
#   61      0.0000     99.7318
#   62      0.0001    102.1785
#   63      0.0000    104.6879
#   64      0.0000    107.2672
#   65      0.0000    109.9242
#   66      0.0000    112.6687
#   67      0.0000    115.5123
#   68      0.0000    118.4689
#   69      0.0000    121.5563
#   70      0.0000    124.7967
#   71      0.0000    128.2193
#   72      0.0000    131.8633
#   73      0.0000    135.7838
#   74      0.0000    140.0628
#   75      0.0000    144.8313
#   76      0.0000    150.3249
#   77      0.0000    157.0594
#   78      0.0000    166.8176
   0    2.84095E+01    1.0000000000000000
   1    2.50375E+01    0.8813062872922934
   2    1.99921E+01    0.7037128972779549
   3    1.53048E+01    0.5387196104518341
   4    1.19842E+01    0.4218370185551545
   5    9.84093E+00    0.3463956028315993
   6    8.27574E+00    0.2913015737351837
   7    6.97861E+00    0.2456434084109179
   8    5.95883E+00    0.2097477753753679
   9    5.22595E+00    0.1839506132840464
  10    4.65840E+00    0.1639733676804228
  11    4.13929E+00    0.1457006603529986
  12    3.67488E+00    0.1293538553264012
  13    3.33032E+00    0.1172253390823689
  14    3.10520E+00    0.1093014757959168
  15    2.92227E+00    0.1028624755334943
  16    2.71997E+00    0.0957415992569502
  17    2.51111E+00    0.0883896223844346
  18    2.34086E+00    0.0823968803780015
  19    2.21749E+00    0.0780544117908751
  20    2.10851E+00    0.0742184582379491
  21    1.99173E+00    0.0701078555353531
  22    1.88129E+00    0.0662203735988565
  23    1.79853E+00    0.0633073691887424
  24    1.73785E+00    0.0611712618738825
  25    1.67451E+00    0.0589419191740595
  26    1.59639E+00    0.0561920487720570
  27    1.51440E+00    0.0533060293799078
  28    1.44427E+00    0.0508376714726848
  29    1.38882E+00    0.0488856989434199
  30    1.34010E+00    0.0471708690767534
  31    1.29164E+00    0.0454652026273324
  32    1.24360E+00    0.0437742223321095
  33    1.19869E+00    0.0421930869100606
  34    1.15741E+00    0.0407403652633992
  35    1.11803E+00    0.0393540843273645
  36    1.07894E+00    0.0379780345489309
  37    1.04004E+00    0.0366086863306522
  38    1.00216E+00    0.0352755427141340
  39    9.66004E-01    0.0340028293364227
  40    9.31630E-01    0.0327928839365553
  41    8.98652E-01    0.0316320760103021
  42    8.66656E-01    0.0305058463810239
  43    8.35357E-01    0.0294041148758050
  44    8.04892E-01    0.0283317689798197
  45    7.75372E-01    0.0272926745213172
  46    7.47457E-01    0.0263100778017831
  47    7.21530E-01    0.0253974691482306
  48    6.96637E-01    0.0245212528111397
  49    6.73666E-01    0.0237126795665754
  50    6.51360E-01    0.0229275236385518
  51    6.17865E-01    0.0217485079786099
  52    5.99512E-01    0.0211024899048192
  53    5.74790E-01    0.0202323044444874
  54    5.37064E-01    0.0189043586758936
  55    4.62696E-01    0.0162866649578214
  56    5.51802E-01    0.0194231512781574
  57    3.60699E-01    0.0126964015897999
  58    5.87759E-01    0.0206888207842658
  59    2.92728E-01    0.0103038679191941
  60    7.07262E-01    0.0248952636332283
