  # July 4, 2014 09:19:42
 # jmin,jmax    0   50
 # Eau     0.00200000
 # r0,ra,rb,rdel,tol,Bau,mu   3.5000  25.0000  25.0000   4.0000  1.0000E-03  3.0130E-07  6.8548E+03
 # parity bigJ  0  0        1  0        1  1        2  0        2  1        2  2        3  0        3  1        3  2        3  3
 # jmin,jmax,maxlamb are            0          50         100
 # j and jp are          30          36
 # lam  B-lambda(j,jp)  angle
#    6    273.1867      4.2049
#    7     16.0162      7.6847
#    8     71.7099     10.3173
#    9      8.2374     12.6451
#   10     30.0452     14.8142
#   11      4.0747     16.8875
#   12     15.5546     18.8983
#   13      2.3763     20.8662
#   14      9.1768     22.8040
#   15      1.5779     24.7204
#   16      5.9890     26.6218
#   17      1.1932     28.5129
#   18      4.2090     30.3974
#   19      0.8919     32.2781
#   20      3.1176     34.1576
#   21      0.6492     36.0379
#   22      2.2351     37.9207
#   23      0.4681     39.8078
#   24      1.6905     41.7004
#   25      0.3129     43.6000
#   26      1.4167     45.5079
#   27      0.1861     47.4252
#   28      1.1615     49.3531
#   29      0.1135     51.2929
#   30      0.9213     53.2457
#   31      0.0849     55.2127
#   32      0.7978     57.1950
#   33      0.0689     59.1941
#   34      0.6622     61.2112
#   35      0.0544     63.2476
#   36      0.4875     65.3048
#   37      0.0430     67.3843
#   38      0.3767     69.4879
#   39      0.0339     71.6171
#   40      0.3205     73.7741
#   41      0.0260     75.9606
#   42      0.2769     78.1791
#   43      0.0192     80.4320
#   44      0.2173     82.7219
#   45      0.0135     85.0519
#   46      0.1527     87.4252
#   47      0.0091     89.8456
#   48      0.1206     92.3172
#   49      0.0056     94.8448
#   50      0.1050     97.4338
#   51      0.0029    100.0905
#   52      0.0712    102.8220
#   53      0.0012    105.6371
#   54      0.0346    108.5457
#   55      0.0005    111.5601
#   56      0.0155    114.6952
#   57      0.0002    117.9697
#   58      0.0075    121.4071
#   59      0.0001    125.0385
#   60      0.0029    128.9053
#   61      0.0000    133.0661
#   62      0.0007    137.6078
#   63      0.0000    142.6695
#   64      0.0002    148.5015
#   65      0.0000    155.6515
#   66      0.0001    166.0138
   0    1.19734E+02    1.0000000000000000
   1    1.11777E+02    0.9335407058025222
   2    1.00800E+02    0.8418684511815847
   3    9.08246E+01    0.7585519936309859
   4    8.23813E+01    0.6880350457677464
   5    7.48416E+01    0.6250641886770826
   6    6.80734E+01    0.5685376019359373
   7    6.20474E+01    0.5182097591404984
   8    5.66072E+01    0.4727736206287085
   9    5.16988E+01    0.4317793534837348
  10    4.73153E+01    0.3951694678531509
  11    4.33694E+01    0.3622138454768361
  12    3.97923E+01    0.3323385561258170
  13    3.65660E+01    0.3053933140593928
  14    3.36401E+01    0.2809566534875012
  15    3.09822E+01    0.2587585154986297
  16    2.86337E+01    0.2391440877958444
  17    2.65896E+01    0.2220719172520080
  18    2.47581E+01    0.2067754984087360
  19    2.30864E+01    0.1928136037252690
  20    2.15964E+01    0.1803693820196144
  21    2.02873E+01    0.1694361812021598
  22    1.91132E+01    0.1596306386375171
  23    1.80310E+01    0.1505915212015218
  24    1.70247E+01    0.1421877110697996
  25    1.60889E+01    0.1343721938039652
  26    1.52349E+01    0.1272389762294155
  27    1.44646E+01    0.1208058444874923
  28    1.37748E+01    0.1150447316979935
  29    1.31308E+01    0.1096660124671334
  30    1.25261E+01    0.1046159941357861
  31    1.19395E+01    0.0997165258395004
  32    1.13967E+01    0.0951829412113048
  33    1.08723E+01    0.0908037936283005
  34    1.03932E+01    0.0868023793329162
  35    9.91752E+00    0.0828294342105836
  36    9.48502E+00    0.0792172915971425
  37    9.03977E+00    0.0754986008385990
  38    8.65658E+00    0.0722982869876336
  39    8.21961E+00    0.0686488187184652
  40    7.89094E+00    0.0659037681319794
  41    7.44309E+00    0.0621634488980204
  42    7.16379E+00    0.0598307926488316
  43    6.71912E+00    0.0561169538948866
  44    6.47082E+00    0.0540431981374311
  45    6.04483E+00    0.0504853786358578
  46    5.84190E+00    0.0487905957270992
  47    5.40370E+00    0.0451307856413501
  48    5.25876E+00    0.0439202518922268
  49    4.77283E+00    0.0398618466920632
  50    4.71727E+00    0.0393978222287803
  51    4.17640E+00    0.0348806153284034
  52    4.13871E+00    0.0345657695138676
  53    3.59844E+00    0.0300535415567294
  54    3.72171E+00    0.0310830671575440
  55    3.02044E+00    0.0252261965892508
  56    3.28859E+00    0.0274657833819857
  57    2.33076E+00    0.0194661283512010
  58    2.96148E+00    0.0247337808391625
  59    1.71331E+00    0.0143092893341499
  60    2.94705E+00    0.0246133048141136
