  # July 4, 2014 09:19:42
 # jmin,jmax    0   50
 # Eau     0.00200000
 # r0,ra,rb,rdel,tol,Bau,mu   3.5000  25.0000  25.0000   4.0000  1.0000E-03  3.0130E-07  6.8548E+03
 # parity bigJ  0  0        1  0        1  1        2  0        2  1        2  2        3  0        3  1        3  2        3  3
 # jmin,jmax,maxlamb are            0          50         100
 # j and jp are          29          44
 # lam  B-lambda(j,jp)  angle
#   15     45.9320      6.1194
#   16      4.2820     10.8537
#   17     19.6298     14.2668
#   18      2.3475     17.1678
#   19     11.7110     19.7853
#   20      1.6309     22.2214
#   21      7.5962     24.5321
#   22      1.1465     26.7515
#   23      5.4198     28.9026
#   24      0.8587     31.0012
#   25      3.8385     33.0590
#   26      0.6479     35.0851
#   27      2.7043     37.0864
#   28      0.4911     39.0684
#   29      1.9702     41.0359
#   30      0.3712     42.9927
#   31      1.5560     44.9421
#   32      0.2678     46.8870
#   33      1.3179     48.8299
#   34      0.1793     50.7732
#   35      1.0750     52.7190
#   36      0.1112     54.6693
#   37      0.9244     56.6258
#   38      0.0651     58.5905
#   39      0.8443     60.5650
#   40      0.0394     62.5509
#   41      0.6291     64.5501
#   42      0.0268     66.5642
#   43      0.3602     68.5950
#   44      0.0182     70.6442
#   45      0.2041     72.7136
#   46      0.0108     74.8053
#   47      0.1223     76.9213
#   48      0.0061     79.0637
#   49      0.0660     81.2349
#   50      0.0036     83.4375
#   51      0.0408     85.6741
#   52      0.0019     87.9478
#   53      0.0278     90.2619
#   54      0.0008     92.6202
#   55      0.0135     95.0267
#   56      0.0002     97.4862
#   57      0.0045    100.0040
#   58      0.0001    102.5862
#   59      0.0014    105.2399
#   60      0.0000    107.9735
#   61      0.0006    110.7967
#   62      0.0000    113.7216
#   63      0.0002    116.7625
#   64      0.0000    119.9375
#   65      0.0000    123.2697
#   66      0.0000    126.7888
#   67      0.0000    130.5352
#   68      0.0000    134.5656
#   69      0.0000    138.9641
#   70      0.0000    143.8652
#   71      0.0000    149.5112
#   72      0.0000    156.4320
#   73      0.0000    166.4599
   0    6.43650E+01    1.0000000000000000
   1    5.73002E+01    0.8902371880519206
   2    4.65858E+01    0.7237748298111423
   3    3.63073E+01    0.5640847682350620
   4    2.85948E+01    0.4442599119542612
   5    2.32984E+01    0.3619725655277219
   6    1.93665E+01    0.3008853260089148
   7    1.60930E+01    0.2500271435931674
   8    1.33747E+01    0.2077943272809096
   9    1.13388E+01    0.1761647146290461
  10    9.96527E+00    0.1548241932339212
  11    9.00993E+00    0.1399816930310380
  12    8.19214E+00    0.1272762571912494
  13    7.39806E+00    0.1149391365066829
  14    6.68507E+00    0.1038617937644312
  15    6.12561E+00    0.0951697827502458
  16    5.70117E+00    0.0885755655860093
  17    5.33955E+00    0.0829572616963610
  18    4.99725E+00    0.0776392029625706
  19    4.68450E+00    0.0727801347539655
  20    4.43377E+00    0.0688847007549964
  21    4.25457E+00    0.0661006540006046
  22    4.11158E+00    0.0638790405315047
  23    3.95201E+00    0.0613999782839501
  24    3.75944E+00    0.0584080545766919
  25    3.56729E+00    0.0554227746711382
  26    3.41323E+00    0.0530292654521745
  27    3.29611E+00    0.0512096305158673
  28    3.18737E+00    0.0495202739867386
  29    3.06998E+00    0.0476963300766166
  30    2.95182E+00    0.0458606008729234
  31    2.84767E+00    0.0442425124201335
  32    2.76128E+00    0.0429003290538814
  33    2.68564E+00    0.0417251820259017
  34    2.61273E+00    0.0405923608208615
  35    2.53863E+00    0.0394411947208945
  36    2.46328E+00    0.0382704394258560
  37    2.38679E+00    0.0370821626796352
  38    2.31024E+00    0.0358926986977068
  39    2.23219E+00    0.0346801040454362
  40    2.15460E+00    0.0334746584920496
  41    2.07483E+00    0.0322354318400150
  42    1.99619E+00    0.0310135901360401
  43    1.91744E+00    0.0297901474018519
  44    1.84101E+00    0.0286026622993053
  45    1.76418E+00    0.0274089116844849
  46    1.70698E+00    0.0265203232181884
  47    1.62405E+00    0.0252319253995105
  48    1.59133E+00    0.0247234798512044
  49    1.52292E+00    0.0236606154089115
  50    1.48538E+00    0.0230773824774148
  51    1.36727E+00    0.0212424667812815
  52    1.39891E+00    0.0217339531255735
  53    1.29783E+00    0.0201635656089932
  54    1.30390E+00    0.0202578217284070
  55    9.76364E-01    0.0151691669417730
  56    1.36307E+00    0.0211772110891323
  57    5.27029E-01    0.0081881310117101
  58    1.60840E+00    0.0249887073378329
