  # July 4, 2014 09:19:42
 # jmin,jmax    0   50
 # Eau     0.00200000
 # r0,ra,rb,rdel,tol,Bau,mu   3.5000  25.0000  25.0000   4.0000  1.0000E-03  3.0130E-07  6.8548E+03
 # parity bigJ  0  0        1  0        1  1        2  0        2  1        2  2        3  0        3  1        3  2        3  3
 # jmin,jmax,maxlamb are            0          50         100
 # j and jp are          13          48
 # lam  B-lambda(j,jp)  angle
#   35      5.1328     13.1922
#   36      0.0097     23.2797
#   37      2.3041     30.4542
#   38      0.0089     36.4906
#   39      1.4826     41.8971
#   40      0.0067     46.9051
#   41      0.9926     51.6442
#   42      0.0048     56.1963
#   43      0.6636     60.6183
#   44      0.0034     64.9521
#   45      0.4297     69.2313
#   46      0.0023     73.4837
#   47      0.2439     77.7339
#   48      0.0014     82.0050
#   49      0.1219     86.3194
#   50      0.0008     90.7006
#   51      0.0681     95.1738
#   52      0.0005     99.7678
#   53      0.0428    104.5167
#   54      0.0002    109.4630
#   55      0.0220    114.6618
#   56      0.0001    120.1890
#   57      0.0084    126.1552
#   58      0.0000    132.7361
#   59      0.0032    140.2463
#   60      0.0000    149.3735
#   61      0.0022    162.5045
   0    1.73443E+01    1.0000000000000000
   1    1.34446E+01    0.7751549980821330
   2    8.72626E+00    0.5031187998691876
   3    5.46585E+00    0.3151375775420527
   4    3.84761E+00    0.2218365205191001
   5    3.12778E+00    0.1803341302017323
   6    2.71948E+00    0.1567934364213134
   7    2.35437E+00    0.1357427250345204
   8    2.05315E+00    0.1183759079748096
   9    1.84657E+00    0.1064654266101426
  10    1.69438E+00    0.0976907612382601
  11    1.53920E+00    0.0887434564601151
  12    1.40493E+00    0.0810022075648253
  13    1.29515E+00    0.0746726440907202
  14    1.21318E+00    0.0699466607138631
  15    1.13204E+00    0.0652684779559371
  16    1.06686E+00    0.0615104654203910
  17    9.97031E-01    0.0574845017361280
  18    9.49496E-01    0.0547438544123383
  19    8.84865E-01    0.0510174824515043
  20    8.54579E-01    0.0492713429362394
  21    7.80136E-01    0.0449793119891130
  22    7.71777E-01    0.0444973492532474
  23    6.68429E-01    0.0385387128628163
  24    6.89014E-01    0.0397255586178810
  25    5.67693E-01    0.0327307126998221
  26    6.99155E-01    0.0403102441466238
