  # July 4, 2014 09:19:42
 # jmin,jmax    0   50
 # Eau     0.00200000
 # r0,ra,rb,rdel,tol,Bau,mu   3.5000  25.0000  25.0000   4.0000  1.0000E-03  3.0130E-07  6.8548E+03
 # parity bigJ  0  0        1  0        1  1        2  0        2  1        2  2        3  0        3  1        3  2        3  3
 # jmin,jmax,maxlamb are            0          50         100
 # j and jp are          26          41
 # lam  B-lambda(j,jp)  angle
#   15     40.3468      6.6847
#   16      2.8771     11.8609
#   17     16.5656     15.5947
#   18      1.6935     18.7703
#   19     10.1431     21.6375
#   20      1.1576     24.3082
#   21      6.6483     26.8433
#   22      0.8224     29.2806
#   23      4.8597     31.6449
#   24      0.5565     33.9539
#   25      3.4861     36.2205
#   26      0.3703     38.4546
#   27      2.5023     40.6640
#   28      0.2588     42.8550
#   29      2.0433     45.0328
#   30      0.1899     47.2020
#   31      1.6310     49.3663
#   32      0.1359     51.5292
#   33      1.2295     53.6938
#   34      0.0907     55.8628
#   35      0.9721     58.0389
#   36      0.0601     60.2246
#   37      0.8241     62.4225
#   38      0.0431     64.6348
#   39      0.7148     66.8640
#   40      0.0312     69.1125
#   41      0.5523     71.3828
#   42      0.0209     73.6775
#   43      0.3546     75.9993
#   44      0.0133     78.3511
#   45      0.2259     80.7359
#   46      0.0083     83.1571
#   47      0.1549     85.6183
#   48      0.0050     88.1236
#   49      0.0920     90.6775
#   50      0.0029     93.2849
#   51      0.0523     95.9515
#   52      0.0016     98.6838
#   53      0.0360    101.4894
#   54      0.0007    104.3770
#   55      0.0214    107.3570
#   56      0.0003    110.4419
#   57      0.0084    113.6470
#   58      0.0001    116.9912
#   59      0.0026    120.4985
#   60      0.0000    124.2002
#   61      0.0010    128.1387
#   62      0.0000    132.3733
#   63      0.0004    136.9920
#   64      0.0000    142.1358
#   65      0.0001    148.0583
#   66      0.0000    155.3148
#   67      0.0000    165.8254
   0    6.07376E+01    1.0000000000000000
   1    5.24148E+01    0.8629720626687204
   2    4.08597E+01    0.6727253490662047
   3    3.10368E+01    0.5109978493901740
   4    2.43390E+01    0.4007240477511370
   5    1.97575E+01    0.3252935657827493
   6    1.62355E+01    0.2673050660764908
   7    1.34332E+01    0.2211678686287832
   8    1.13518E+01    0.1868993958165655
   9    9.90607E+00    0.1630963512389867
  10    8.84058E+00    0.1455537986293619
  11    7.93214E+00    0.1305969256738372
  12    7.14227E+00    0.1175923928255463
  13    6.51434E+00    0.1072538660658345
  14    6.03506E+00    0.0993629141855311
  15    5.63315E+00    0.0927457853910305
  16    5.23822E+00    0.0862434740464598
  17    4.83625E+00    0.0796253502277308
  18    4.48754E+00    0.0738840858643831
  19    4.24452E+00    0.0698829973074810
  20    4.07499E+00    0.0670917690858680
  21    3.90744E+00    0.0643331589913186
  22    3.71985E+00    0.0612446202681637
  23    3.52876E+00    0.0580985024246972
  24    3.34458E+00    0.0550661683564594
  25    3.16392E+00    0.0520916857040159
  26    2.99878E+00    0.0493727533428845
  27    2.86161E+00    0.0471143520824320
  28    2.75712E+00    0.0453940286730751
  29    2.66912E+00    0.0439451452949479
  30    2.58880E+00    0.0426226538803694
  31    2.50580E+00    0.0412562529064261
  32    2.42667E+00    0.0399533419758305
  33    2.34489E+00    0.0386068647313384
  34    2.27439E+00    0.0374462243717969
  35    2.19252E+00    0.0360981992170696
  36    2.13451E+00    0.0351430963036332
  37    2.04112E+00    0.0336055740232574
  38    1.99167E+00    0.0327914449100735
  39    1.88393E+00    0.0310175267851277
  40    1.83172E+00    0.0301579136009642
  41    1.71910E+00    0.0283037056401318
  42    1.68672E+00    0.0277706549588013
  43    1.55163E+00    0.0255465108979012
  44    1.60607E+00    0.0264427933241344
  45    1.45967E+00    0.0240323319132771
  46    1.55924E+00    0.0256717081821480
  47    1.33064E+00    0.0219079981584458
  48    1.54054E+00    0.0253639195259280
  49    1.01127E+00    0.0166498160721724
  50    1.59067E+00    0.0261892102245782
  51    7.96840E-01    0.0131194025303264
  52    1.96282E+00    0.0323164473197449
