  # July 4, 2014 09:19:42
 # jmin,jmax    0   50
 # Eau     0.00200000
 # r0,ra,rb,rdel,tol,Bau,mu   3.5000  25.0000  25.0000   4.0000  1.0000E-03  3.0130E-07  6.8548E+03
 # parity bigJ  0  0        1  0        1  1        2  0        2  1        2  2        3  0        3  1        3  2        3  3
 # jmin,jmax,maxlamb are            0          50         100
 # j and jp are          25          50
 # lam  B-lambda(j,jp)  angle
#   25     15.1307      7.9712
#   26      0.6590     14.0362
#   27      6.8613     18.3464
#   28      0.2578     21.9635
#   29      4.4799     25.1906
#   30      0.1365     28.1646
#   31      3.2496     30.9612
#   32      0.1014     33.6270
#   33      2.5182     36.1934
#   34      0.0797     38.6827
#   35      2.0253     41.1113
#   36      0.0623     43.4919
#   37      1.6468     45.8346
#   38      0.0469     48.1475
#   39      1.2294     50.4372
#   40      0.0333     52.7097
#   41      0.7881     54.9698
#   42      0.0224     57.2220
#   43      0.4381     59.4703
#   44      0.0142     61.7182
#   45      0.2087     63.9691
#   46      0.0086     66.2263
#   47      0.0872     68.4927
#   48      0.0052     70.7715
#   49      0.0456     73.0656
#   50      0.0030     75.3781
#   51      0.0321     77.7120
#   52      0.0014     80.0706
#   53      0.0177     82.4571
#   54      0.0005     84.8752
#   55      0.0063     87.3288
#   56      0.0002     89.8220
#   57      0.0018     92.3594
#   58      0.0001     94.9460
#   59      0.0007     97.5878
#   60      0.0000    100.2911
#   61      0.0003    103.0635
#   62      0.0000    105.9136
#   63      0.0001    108.8518
#   64      0.0000    111.8904
#   65      0.0000    115.0444
#   66      0.0000    118.3324
#   67      0.0000    121.7778
#   68      0.0000    125.4115
#   69      0.0000    129.2747
#   70      0.0000    133.4255
#   71      0.0000    137.9499
#   72      0.0000    142.9856
#   73      0.0000    148.7803
#   74      0.0000    155.8762
#   75      0.0000    166.1485
   0    3.31428E+01    1.0000000000000000
   1    2.89018E+01    0.8720404181891864
   2    2.22459E+01    0.6712155163176885
   3    1.56347E+01    0.4717384232852844
   4    1.07757E+01    0.3251311475859952
   5    8.03414E+00    0.2424100205627072
   6    6.78439E+00    0.2047021472053949
   7    6.14905E+00    0.1855322284523963
   8    5.54219E+00    0.1672218827006309
   9    4.81214E+00    0.1451941930503618
  10    4.08907E+00    0.1233773481022667
  11    3.54207E+00    0.1068732592255875
  12    3.21713E+00    0.0970689531415121
  13    3.03113E+00    0.0914567382828534
  14    2.87342E+00    0.0866982324481850
  15    2.69500E+00    0.0813150026008735
  16    2.51104E+00    0.0757644831521124
  17    2.34869E+00    0.0708658071330367
  18    2.21421E+00    0.0668081520550311
  19    2.10102E+00    0.0633929260981294
  20    2.00500E+00    0.0604958338601352
  21    1.92333E+00    0.0580315660663313
  22    1.84875E+00    0.0557813713596896
  23    1.77379E+00    0.0535197742520384
  24    1.69812E+00    0.0512364512303422
  25    1.62738E+00    0.0491019840533037
  26    1.56588E+00    0.0472466199125972
  27    1.51276E+00    0.0456436081954592
  28    1.46425E+00    0.0441801987001102
  29    1.41756E+00    0.0427713261417793
  30    1.37195E+00    0.0413950906127810
  31    1.32775E+00    0.0400616824530311
  32    1.28528E+00    0.0387801492295389
  33    1.24450E+00    0.0375497856107950
  34    1.20530E+00    0.0363670066744886
  35    1.16767E+00    0.0352314297755699
  36    1.13172E+00    0.0341468923595760
  37    1.09766E+00    0.0331190522172048
  38    1.06561E+00    0.0321520535419001
  39    1.03535E+00    0.0312390144241001
  40    1.00682E+00    0.0303781411250208
  41    9.78219E-01    0.0295153288663296
  42    9.50902E-01    0.0286910882499069
  43    9.22349E-01    0.0278295897829289
  44    8.96757E-01    0.0270574094744772
  45    8.84600E-01    0.0266906030333809
  46    8.92560E-01    0.0269307746060761
  47    8.79172E-01    0.0265268262692376
  48    9.16769E-01    0.0276612030506681
  49    8.78972E-01    0.0265207842375613
  50    8.23664E-01    0.0248519917798812
