  # July 4, 2014 09:19:42
 # jmin,jmax    0   50
 # Eau     0.00200000
 # r0,ra,rb,rdel,tol,Bau,mu   3.5000  25.0000  25.0000   4.0000  1.0000E-03  3.0130E-07  6.8548E+03
 # parity bigJ  0  0        1  0        1  1        2  0        2  1        2  2        3  0        3  1        3  2        3  3
 # jmin,jmax,maxlamb are            0          50         100
 # j and jp are          17          36
 # lam  B-lambda(j,jp)  angle
#   19     20.1864      9.8596
#   20      0.3521     17.4644
#   21      8.2594     22.9258
#   22      0.2662     27.5570
#   23      5.0501     31.7312
#   24      0.1937     35.6165
#   25      3.4442     39.3060
#   26      0.1397     42.8574
#   27      2.4118     46.3099
#   28      0.0979     49.6917
#   29      1.8410     53.0243
#   30      0.0680     56.3247
#   31      1.4884     59.6069
#   32      0.0485     62.8832
#   33      1.1858     66.1642
#   34      0.0359     69.4600
#   35      0.9736     72.7801
#   36      0.0273     76.1341
#   37      0.8275     79.5314
#   38      0.0207     82.9824
#   39      0.7272     86.4978
#   40      0.0147     90.0897
#   41      0.6421     93.7720
#   42      0.0095     97.5605
#   43      0.4950    101.4741
#   44      0.0058    105.5361
#   45      0.3264    109.7752
#   46      0.0036    114.2288
#   47      0.2305    118.9470
#   48      0.0021    123.9994
#   49      0.1839    129.4894
#   50      0.0011    135.5820
#   51      0.1414    142.5738
#   52      0.0004    151.1144
#   53      0.1588    163.4563
   0    4.79105E+01    1.0000000000000000
   1    3.33543E+01    0.6961794755218184
   2    2.26478E+01    0.4727108373758707
   3    1.65085E+01    0.3445694175224635
   4    1.31457E+01    0.2743802499831983
   5    1.00282E+01    0.2093115108439416
   6    8.29624E+00    0.1731613721081720
   7    6.98115E+00    0.1457124099067891
   8    6.25362E+00    0.1305272823124269
   9    5.30708E+00    0.1107707361783249
  10    4.95646E+00    0.1034526122380853
  11    4.43236E+00    0.0925134182666988
  12    4.16748E+00    0.0869848408467932
  13    3.66618E+00    0.0765215801465099
  14    3.52944E+00    0.0736674416270161
  15    3.12096E+00    0.0651415187680750
  16    3.06801E+00    0.0640363013538119
  17    2.72820E+00    0.0569436323194243
  18    2.75489E+00    0.0575008516347953
  19    2.40827E+00    0.0502661019010977
  20    2.45981E+00    0.0513417197026478
  21    2.11289E+00    0.0441007013100478
  22    2.21320E+00    0.0461945739375678
  23    1.86802E+00    0.0389898268670029
  24    2.02358E+00    0.0422366596094451
  25    1.63880E+00    0.0342054496820228
  26    1.90533E+00    0.0397684787955780
  27    1.40073E+00    0.0292364835119066
  28    1.85696E+00    0.0387588794094199
  29    1.16726E+00    0.0243634472313416
  30    1.79247E+00    0.0374129428767591
  31    9.15581E-01    0.0191102583765229
  32    1.74892E+00    0.0365039551641383
  33    6.86816E-01    0.0143354043874004
  34    2.14219E+00    0.0447123687036775
