  # July 4, 2014 09:19:42
 # jmin,jmax    0   50
 # Eau     0.00200000
 # r0,ra,rb,rdel,tol,Bau,mu   3.5000  25.0000  25.0000   4.0000  1.0000E-03  3.0130E-07  6.8548E+03
 # parity bigJ  0  0        1  0        1  1        2  0        2  1        2  2        3  0        3  1        3  2        3  3
 # jmin,jmax,maxlamb are            0          50         100
 # j and jp are          17          50
 # lam  B-lambda(j,jp)  angle
#   33      6.0116     11.0395
#   34      0.0325     19.4374
#   35      2.7017     25.3936
#   36      0.0234     30.3869
#   37      1.8236     34.8408
#   38      0.0202     38.9473
#   39      1.2846     42.8131
#   40      0.0155     46.5049
#   41      0.8185     50.0680
#   42      0.0110     53.5350
#   43      0.4577     56.9307
#   44      0.0072     60.2747
#   45      0.2263     63.5831
#   46      0.0045     66.8696
#   47      0.0976     70.1464
#   48      0.0027     73.4245
#   49      0.0446     76.7142
#   50      0.0016     80.0258
#   51      0.0294     83.3693
#   52      0.0008     86.7552
#   53      0.0189     90.1946
#   54      0.0003     93.6997
#   55      0.0083     97.2842
#   56      0.0001    100.9636
#   57      0.0025    104.7566
#   58      0.0000    108.6855
#   59      0.0008    112.7782
#   60      0.0000    117.0706
#   61      0.0004    121.6106
#   62      0.0000    126.4650
#   63      0.0001    131.7323
#   64      0.0000    137.5700
#   65      0.0000    144.2610
#   66      0.0000    152.4246
#   67      0.0000    164.2068
   0    1.66619E+01    1.0000000000000000
   1    1.41423E+01    0.8487823479316815
   2    1.03914E+01    0.6236628767928284
   3    6.92995E+00    0.4159167948857331
   4    4.57879E+00    0.2748064751718559
   5    3.35246E+00    0.2012055924988249
   6    2.85261E+00    0.1712058532210471
   7    2.64233E+00    0.1585856014250537
   8    2.44421E+00    0.1466947922452992
   9    2.18850E+00    0.1313480586362283
  10    1.93284E+00    0.1160040785559828
  11    1.73143E+00    0.1039157730131093
  12    1.58080E+00    0.0948754136630662
  13    1.45729E+00    0.0874628442115918
  14    1.35329E+00    0.0812207662433999
  15    1.26841E+00    0.0761263324120076
  16    1.19606E+00    0.0717843687525651
  17    1.12854E+00    0.0677318539842669
  18    1.06491E+00    0.0639129680599976
  19    1.00734E+00    0.0604580229038769
  20    9.57044E-01    0.0574392093941070
  21    9.12356E-01    0.0547571276382250
  22    8.72623E-01    0.0523724950802507
  23    8.36199E-01    0.0501864172781422
  24    8.03920E-01    0.0482491451492307
  25    7.73489E-01    0.0464227191752918
  26    7.46008E-01    0.0447733681147619
  27    7.17329E-01    0.0430521417699276
  28    6.87972E-01    0.0412902267515323
  29    6.51486E-01    0.0391004285134456
  30    6.09848E-01    0.0366014377159441
  31    5.46818E-01    0.0328185484366325
  32    5.00927E-01    0.0300642984989845
  33    3.84781E-01    0.0230935340620218
  34    3.04854E-01    0.0182965332269181
