  # July 4, 2014 09:19:42
 # jmin,jmax    0   50
 # Eau     0.00200000
 # r0,ra,rb,rdel,tol,Bau,mu   3.5000  25.0000  25.0000   4.0000  1.0000E-03  3.0130E-07  6.8548E+03
 # parity bigJ  0  0        1  0        1  1        2  0        2  1        2  2        3  0        3  1        3  2        3  3
 # jmin,jmax,maxlamb are            0          50         100
 # j and jp are          32          35
 # lam  B-lambda(j,jp)  angle
#    3    374.0536      2.9213
#    4      6.8671      5.5969
#    5    116.7259      7.7363
#    6      4.9000      9.7024
#    7     62.2705     11.5849
#    8      3.2786     13.4206
#    9     38.9067     15.2276
#   10      2.2592     17.0164
#   11     26.0649     18.7937
#   12      1.6948     20.5638
#   13     18.1119     22.3299
#   14      1.3596     24.0943
#   15     13.1723     25.8589
#   16      1.0755     27.6252
#   17      9.3849     29.3944
#   18      0.8354     31.1676
#   19      6.8142     32.9458
#   20      0.6498     34.7299
#   21      5.0365     36.5207
#   22      0.5010     38.3191
#   23      3.7071     40.1259
#   24      0.3708     41.9418
#   25      2.7808     43.7677
#   26      0.2718     45.6042
#   27      2.1520     47.4523
#   28      0.2084     49.3128
#   29      1.7532     51.1864
#   30      0.1603     53.0742
#   31      1.4062     54.9769
#   32      0.1209     56.8957
#   33      1.1233     58.8316
#   34      0.0910     60.7855
#   35      0.9287     62.7588
#   36      0.0677     64.7526
#   37      0.7922     66.7682
#   38      0.0498     68.8071
#   39      0.6990     70.8709
#   40      0.0350     72.9611
#   41      0.5623     75.0796
#   42      0.0231     77.2283
#   43      0.3707     79.4095
#   44      0.0149     81.6254
#   45      0.2329     83.8788
#   46      0.0096     86.1725
#   47      0.1612     88.5097
#   48      0.0058     90.8941
#   49      0.1002     93.3299
#   50      0.0034     95.8216
#   51      0.0568     98.3746
#   52      0.0019    100.9950
#   53      0.0386    103.6902
#   54      0.0009    106.4683
#   55      0.0240    109.3396
#   56      0.0003    112.3160
#   57      0.0100    115.4123
#   58      0.0001    118.6469
#   59      0.0031    122.0433
#   60      0.0000    125.6319
#   61      0.0011    129.4539
#   62      0.0000    133.5674
#   63      0.0005    138.0582
#   64      0.0000    143.0640
#   65      0.0002    148.8324
#   66      0.0000    155.9057
#   67      0.0001    166.1579
   0    1.38618E+02    1.0000000000000000
   1    1.26463E+02    0.9123148898059463
   2    1.09023E+02    0.7865021027723499
   3    9.29869E+01    0.6708156503427130
   4    8.03619E+01    0.5797377057270848
   5    7.01938E+01    0.5063842014238111
   6    6.15980E+01    0.4443738333337148
   7    5.44837E+01    0.3930506380847491
   8    4.88905E+01    0.3527001484757578
   9    4.45314E+01    0.3212532426453834
  10    4.09270E+01    0.2952511260551508
  11    3.77769E+01    0.2725258619124992
  12    3.50439E+01    0.2528099094226013
  13    3.27165E+01    0.2360194177900190
  14    3.06847E+01    0.2213618449596378
  15    2.88315E+01    0.2079933140064152
  16    2.71201E+01    0.1956468642716459
  17    2.55869E+01    0.1845863657136546
  18    2.42640E+01    0.1750423489625113
  19    2.30971E+01    0.1666244674296226
  20    2.20004E+01    0.1587131259493742
  21    2.09631E+01    0.1512293606551566
  22    2.00291E+01    0.1444915165443881
  23    1.91981E+01    0.1384965564344843
  24    1.84349E+01    0.1329912697283794
  25    1.77248E+01    0.1278685694520647
  26    1.70761E+01    0.1231887950863335
  27    1.64744E+01    0.1188477230131037
  28    1.58996E+01    0.1147011845830820
  29    1.53423E+01    0.1106806278162586
  30    1.48172E+01    0.1068927294204235
  31    1.43277E+01    0.1033609811819464
  32    1.38761E+01    0.1001032626830372
  33    1.34496E+01    0.0970269767816507
  34    1.30567E+01    0.0941924322594564
  35    1.26839E+01    0.0915028189895181
  36    1.23563E+01    0.0891394332356874
  37    1.20303E+01    0.0867873643345541
  38    1.17562E+01    0.0848103554132597
  39    1.14486E+01    0.0825912784569936
  40    1.12011E+01    0.0808055759204595
  41    1.09055E+01    0.0786734781981473
  42    1.06802E+01    0.0770479616959538
  43    1.04029E+01    0.0750471647078802
  44    1.02281E+01    0.0737865798582883
  45    9.94500E+00    0.0717441507811615
  46    9.84535E+00    0.0710252120292261
  47    9.55545E+00    0.0689338571493160
  48    9.50791E+00    0.0685909113992776
  49    9.22077E+00    0.0665194868767782
  50    9.28123E+00    0.0669555932503886
  51    8.86212E+00    0.0639321136761962
  52    9.10140E+00    0.0656583101496659
  53    8.49222E+00    0.0612636478530880
  54    8.92993E+00    0.0644213487446599
  55    8.19933E+00    0.0591507359828520
  56    8.80155E+00    0.0634951893386133
  57    7.99388E+00    0.0576685926506573
  58    8.86932E+00    0.0639840787926886
  59    7.77678E+00    0.0561024152974949
  60    9.05643E+00    0.0653339120413390
  61    7.50644E+00    0.0541521529776300
  62    9.68834E+00    0.0698925600748006
  63    6.87236E+00    0.0495778088717073
  64    1.29767E+01    0.0936149135734881
