  # July 4, 2014 09:19:42
 # jmin,jmax    0   50
 # Eau     0.00200000
 # r0,ra,rb,rdel,tol,Bau,mu   3.5000  25.0000  25.0000   4.0000  1.0000E-03  3.0130E-07  6.8548E+03
 # parity bigJ  0  0        1  0        1  1        2  0        2  1        2  2        3  0        3  1        3  2        3  3
 # jmin,jmax,maxlamb are            0          50         100
 # j and jp are          32          49
 # lam  B-lambda(j,jp)  angle
#   17     39.0574      5.8851
#   18      3.6341     10.4104
#   19     18.3269     13.6571
#   20      2.6656     16.4044
#   21     12.5098     18.8733
#   22      1.7971     21.1627
#   23      9.4363     23.3270
#   24      0.8742     25.3995
#   25      6.8499     27.4024
#   26      0.4393     29.3512
#   27      5.1304     31.2573
#   28      0.2508     33.1295
#   29      3.9945     34.9744
#   30      0.1618     36.7975
#   31      3.2278     38.6033
#   32      0.1139     40.3955
#   33      2.6840     42.1771
#   34      0.0828     43.9508
#   35      2.3078     45.7192
#   36      0.0609     47.4841
#   37      1.9160     49.2476
#   38      0.0435     51.0114
#   39      1.3651     52.7769
#   40      0.0295     54.5458
#   41      0.8266     56.3195
#   42      0.0190     58.0992
#   43      0.4458     59.8864
#   44      0.0113     61.6822
#   45      0.2008     63.4880
#   46      0.0065     65.3051
#   47      0.0755     67.1347
#   48      0.0040     68.9781
#   49      0.0406     70.8368
#   50      0.0024     72.7120
#   51      0.0297     74.6052
#   52      0.0011     76.5180
#   53      0.0149     78.4520
#   54      0.0004     80.4088
#   55      0.0046     82.3903
#   56      0.0001     84.3986
#   57      0.0013     86.4356
#   58      0.0000     88.5037
#   59      0.0006     90.6056
#   60      0.0000     92.7439
#   61      0.0002     94.9218
#   62      0.0000     97.1427
#   63      0.0000     99.4106
#   64      0.0000    101.7299
#   65      0.0000    104.1055
#   66      0.0000    106.5434
#   67      0.0000    109.0501
#   68      0.0000    111.6337
#   69      0.0000    114.3035
#   70      0.0000    117.0706
#   71      0.0000    119.9491
#   72      0.0000    122.9559
#   73      0.0000    126.1128
#   74      0.0000    129.4484
#   75      0.0000    133.0010
#   76      0.0000    136.8245
#   77      0.0000    140.9988
#   78      0.0000    145.6520
#   79      0.0000    151.0142
#   80      0.0000    157.5896
#   81      0.0000    167.1189
   0    6.62376E+01    1.0000000000000000
   1    5.93519E+01    0.8960462156046690
   2    4.81250E+01    0.7265510372760513
   3    3.61992E+01    0.5465053169767600
   4    2.64603E+01    0.3994756859867435
   5    1.99724E+01    0.3015266472329555
   6    1.61554E+01    0.2439012767789247
   7    1.37506E+01    0.2075946541211023
   8    1.17631E+01    0.1775901861540183
   9    9.85776E+00    0.1488242663234048
  10    8.19442E+00    0.1237125304160966
  11    7.02664E+00    0.1060824221280247
  12    6.40374E+00    0.0966784306278104
  13    6.13433E+00    0.0926109971533100
  14    5.94862E+00    0.0898072745927423
  15    5.68012E+00    0.0857536789338075
  16    5.32379E+00    0.0803741677218337
  17    4.96238E+00    0.0749178500809514
  18    4.66044E+00    0.0703594954466105
  19    4.42096E+00    0.0667440504459121
  20    4.21231E+00    0.0635939465631984
  21    4.00895E+00    0.0605238627185686
  22    3.80391E+00    0.0574282739693642
  23    3.60071E+00    0.0543605719312173
  24    3.40864E+00    0.0514608433851247
  25    3.24242E+00    0.0489513911740629
  26    3.11437E+00    0.0470182027601348
  27    3.02192E+00    0.0456224708944404
  28    2.94673E+00    0.0444873439482454
  29    2.86943E+00    0.0433202518989330
  30    2.78419E+00    0.0420333205259919
  31    2.69832E+00    0.0407370617885687
  32    2.62033E+00    0.0395596295242279
  33    2.55082E+00    0.0385102217116342
  34    2.48389E+00    0.0374997770415217
  35    2.41407E+00    0.0364456132929802
  36    2.34063E+00    0.0353368966394085
  37    2.26677E+00    0.0342217728031127
  38    2.19642E+00    0.0331596599570171
  39    2.13214E+00    0.0321892672584665
  40    2.07491E+00    0.0313253200362503
  41    2.02485E+00    0.0305694553037979
  42    1.98180E+00    0.0299195996637483
  43    1.94558E+00    0.0293727257418296
  44    1.91582E+00    0.0289234614644055
  45    1.89187E+00    0.0285618431121508
  46    1.87271E+00    0.0282726447985590
  47    1.85703E+00    0.0280358718724032
  48    1.84335E+00    0.0278293898727542
  49    1.83030E+00    0.0276323012994289
  50    1.81660E+00    0.0274254846531270
  51    1.80187E+00    0.0272031652215126
  52    1.78607E+00    0.0269645597728129
  53    1.76690E+00    0.0266752254231514
  54    1.74805E+00    0.0263906517333649
  55    1.72402E+00    0.0260277718510277
  56    1.68119E+00    0.0253812187243121
  57    1.63616E+00    0.0247013649442332
  58    1.63088E+00    0.0246216407879976
  59    1.59258E+00    0.0240434219043467
  60    1.57738E+00    0.0238139856397358
  61    1.50244E+00    0.0226825929922322
  62    1.47548E+00    0.0222755405502809
  63    1.41549E+00    0.0213698964153368
  64    2.44069E+00    0.0368475782547246
