  # July 4, 2014 09:19:42
 # jmin,jmax    0   50
 # Eau     0.00200000
 # r0,ra,rb,rdel,tol,Bau,mu   3.5000  25.0000  25.0000   4.0000  1.0000E-03  3.0130E-07  6.8548E+03
 # parity bigJ  0  0        1  0        1  1        2  0        2  1        2  2        3  0        3  1        3  2        3  3
 # jmin,jmax,maxlamb are            0          50         100
 # j and jp are          15          49
 # lam  B-lambda(j,jp)  angle
#   34      2.7999     12.0197
#   35      0.0149     21.1828
#   36      1.1489     27.6888
#   37      0.0118     33.1509
#   38      0.7675     38.0310
#   39      0.0108     42.5390
#   40      0.5724     46.7917
#   41      0.0088     50.8624
#   42      0.4018     54.8014
#   43      0.0065     58.6452
#   44      0.2535     62.4220
#   45      0.0046     66.1545
#   46      0.1620     69.8620
#   47      0.0030     73.5613
#   48      0.1103     77.2679
#   49      0.0016     80.9967
#   50      0.0648     84.7623
#   51      0.0007     88.5802
#   52      0.0285     92.4665
#   53      0.0003     96.4394
#   54      0.0113    100.5197
#   55      0.0001    104.7321
#   56      0.0057    109.1068
#   57      0.0000    113.6822
#   58      0.0028    118.5093
#   59      0.0000    123.6586
#   60      0.0009    129.2340
#   61      0.0000    135.4011
#   62      0.0002    142.4568
#   63      0.0000    151.0511
#   64      0.0001    163.4385
   0    8.70012E+00    1.0000000000000000
   1    6.90184E+00    0.7933035716633990
   2    4.59505E+00    0.5281589684346808
   3    2.93199E+00    0.3370051523047921
   4    2.10299E+00    0.2417199739819742
   5    1.73602E+00    0.1995399913755402
   6    1.51278E+00    0.1738801596589042
   7    1.33275E+00    0.1531879780566987
   8    1.18250E+00    0.1359180113405310
   9    1.03913E+00    0.1194387105914070
  10    8.99272E-01    0.1033631123914720
  11    7.90339E-01    0.0908422335186343
  12    7.22655E-01    0.0830626025582992
  13    6.73142E-01    0.0773715346467443
  14    6.22925E-01    0.0715995696860356
  15    5.72647E-01    0.0658205590175670
  16    5.29897E-01    0.0609068033628610
  17    4.94051E-01    0.0567866943685374
  18    4.63994E-01    0.0533318604219309
  19    4.35845E-01    0.0500963718831618
  20    4.13022E-01    0.0474731570919672
  21    3.90398E-01    0.0448727176566520
  22    3.75400E-01    0.0431487660831102
  23    3.56900E-01    0.0410223914950350
  24    3.49762E-01    0.0402019839690367
  25    3.33636E-01    0.0383483726798680
  26    3.32118E-01    0.0381739357210282
  27    3.13917E-01    0.0360818964835248
  28    3.09969E-01    0.0356280823384652
  29    2.36988E-01    0.0272396491425157
  30    3.13373E-01    0.0360193238948649
