  # July 4, 2014 09:19:42
 # jmin,jmax    0   50
 # Eau     0.00200000
 # r0,ra,rb,rdel,tol,Bau,mu   3.5000  25.0000  25.0000   4.0000  1.0000E-03  3.0130E-07  6.8548E+03
 # parity bigJ  0  0        1  0        1  1        2  0        2  1        2  2        3  0        3  1        3  2        3  3
 # jmin,jmax,maxlamb are            0          50         100
 # j and jp are          14          45
 # lam  B-lambda(j,jp)  angle
#   31      7.2953     12.3747
#   32      0.0453     21.8391
#   33      2.8898     28.5764
#   34      0.0411     34.2477
#   35      1.5975     39.3283
#   36      0.0320     44.0342
#   37      1.0357     48.4858
#   38      0.0231     52.7589
#   39      0.8009     56.9057
#   40      0.0154     60.9646
#   41      0.5771     64.9655
#   42      0.0095     68.9328
#   43      0.3551     72.8878
#   44      0.0054     76.8496
#   45      0.2437     80.8363
#   46      0.0031     84.8659
#   47      0.1838     88.9571
#   48      0.0018     93.1300
#   49      0.1119     97.4073
#   50      0.0010    101.8153
#   51      0.0616    106.3862
#   52      0.0006    111.1603
#   53      0.0426    116.1910
#   54      0.0002    121.5517
#   55      0.0284    127.3504
#   56      0.0001    133.7588
#   57      0.0142    141.0848
#   58      0.0000    150.0024
#   59      0.0080    162.8494
   0    2.07676E+01    1.0000000000000000
   1    1.60675E+01    0.7736801094113434
   2    1.09897E+01    0.5291770283622245
   3    7.65212E+00    0.3684644811496073
   4    5.80669E+00    0.2796033645412648
   5    4.67756E+00    0.2252336272499058
   6    3.87597E+00    0.1866352843142875
   7    3.23817E+00    0.1559241479931240
   8    2.76399E+00    0.1330913945772648
   9    2.38102E+00    0.1146505600637731
  10    2.15740E+00    0.1038828996514953
  11    2.01553E+00    0.0970516758609216
  12    1.88757E+00    0.0908899730348798
  13    1.69523E+00    0.0816286090393913
  14    1.54746E+00    0.0745131085299640
  15    1.40494E+00    0.0676507973413735
  16    1.32503E+00    0.0638026231179719
  17    1.20119E+00    0.0578396678349970
  18    1.13868E+00    0.0548297621297876
  19    1.01236E+00    0.0487470882684992
  20    9.70239E-01    0.0467189050241705
  21    8.41220E-01    0.0405063837078675
  22    8.14495E-01    0.0392195261193622
  23    6.86127E-01    0.0330383382140281
  24    6.89091E-01    0.0331810662506006
  25    5.54860E-01    0.0267176012677521
  26    7.09907E-01    0.0341833832005138
  27    4.84233E-01    0.0233167806984346
  28    7.95824E-01    0.0383204888476108
