  # July 4, 2014 12:22:22
 # jmin,jmax    0   50
 # Eau     0.00200000
 # r0,ra,rb,rdel,tol,Bau,mu   3.5000  25.0000  25.0000   4.0000  1.0000E-03  3.0130E-07  6.8548E+03
 # parity bigJ  0  0        1  0        1  1        2  0        2  1        2  2        3  0        3  1        3  2        3  3
 # jmin,jmax,maxlamb are            0          50         100
 # j and jp are          22          26
 # lam  B-lambda(j,jp)  angle
#    4    592.0143      4.6912
#    5     13.8608      8.7879
#    6    120.1907     11.9874
#    7      4.4876     14.8839
#    8     43.9792     17.6313
#    9      1.7160     20.2941
#   10     20.0713     22.9058
#   11      0.7805     25.4861
#   12     10.2311     28.0478
#   13      0.4135     30.5999
#   14      5.8730     33.1488
#   15      0.2348     35.6998
#   16      3.7508     38.2572
#   17      0.1449     40.8245
#   18      2.6207     43.4050
#   19      0.1037     46.0019
#   20      1.9535     48.6179
#   21      0.0814     51.2560
#   22      1.5929     53.9189
#   23      0.0660     56.6097
#   24      1.2953     59.3315
#   25      0.0546     62.0874
#   26      1.1166     64.8810
#   27      0.0453     67.7161
#   28      0.9903     70.5966
#   29      0.0372     73.5273
#   30      0.8410     76.5131
#   31      0.0304     79.5598
#   32      0.7007     82.6738
#   33      0.0245     85.8626
#   34      0.6433     89.1348
#   35      0.0190     92.5003
#   36      0.5516     95.9711
#   37      0.0144     99.5616
#   38      0.3894    103.2892
#   39      0.0109    107.1757
#   40      0.3024    111.2488
#   41      0.0080    115.5444
#   42      0.2782    120.1113
#   43      0.0054    125.0176
#   44      0.2614    130.3650
#   45      0.0034    136.3159
#   46      0.2856    143.1626
#   47      0.0017    151.5460
#   48      0.4267    163.6861
   0    1.98801E+02    1.0000000000000000
   1    1.81175E+02    0.9113401162010273
   2    1.68434E+02    0.8472534744652885
   3    1.55293E+02    0.7811485594685785
   4    1.44710E+02    0.7279149912962231
   5    1.32652E+02    0.6672626218469369
   6    1.22148E+02    0.6144264948597616
   7    1.11600E+02    0.5613649921739309
   8    1.02772E+02    0.5169597490060188
   9    9.38914E+01    0.4722896109061344
  10    8.66389E+01    0.4358080756233344
  11    7.94841E+01    0.3998183251484841
  12    7.35971E+01    0.3702055058330757
  13    6.76643E+01    0.3403626446489854
  14    6.29744E+01    0.3167715074316645
  15    5.81550E+01    0.2925295153163714
  16    5.42636E+01    0.2729548772362344
  17    5.02266E+01    0.2526483454983488
  18    4.70927E+01    0.2368839987570686
  19    4.37135E+01    0.2198862706727333
  20    4.10960E+01    0.2067195273972807
  21    3.81929E+01    0.1921168776774176
  22    3.60360E+01    0.1812672872578763
  23    3.35359E+01    0.1686913801205767
  24    3.17537E+01    0.1597262517187779
  25    2.95786E+01    0.1487853251487604
  26    2.80725E+01    0.1412092528569094
  27    2.61377E+01    0.1314768610573366
  28    2.48746E+01    0.1251232439184299
  29    2.30819E+01    0.1161057704111916
  30    2.21074E+01    0.1112038781325771
  31    2.03275E+01    0.1022504879867697
  32    1.95875E+01    0.0985284780649598
  33    1.78153E+01    0.0896141270342122
  34    1.72351E+01    0.0866952754930415
  35    1.55047E+01    0.0779914279090296
  36    1.50938E+01    0.0759245512179626
  37    1.32719E+01    0.0667600465296930
  38    1.30707E+01    0.0657477958373744
  39    1.11437E+01    0.0560545247200098
  40    1.11442E+01    0.0560570544184797
  41    8.96225E+00    0.0450816234641606
  42    9.23138E+00    0.0464353653737166
  43    6.41280E+00    0.0322574465930142
  44    7.69116E+00    0.0386878210049619
