  # July 4, 2014 12:22:22
 # jmin,jmax    0   50
 # Eau     0.00200000
 # r0,ra,rb,rdel,tol,Bau,mu   3.5000  25.0000  25.0000   4.0000  1.0000E-03  3.0130E-07  6.8548E+03
 # parity bigJ  0  0        1  0        1  1        2  0        2  1        2  2        3  0        3  1        3  2        3  3
 # jmin,jmax,maxlamb are            0          50         100
 # j and jp are          13          47
 # lam  B-lambda(j,jp)  angle
#   34      2.9724     13.1390
#   35      0.0090     23.1906
#   36      1.1291     30.3428
#   37      0.0088     36.3631
#   38      0.6328     41.7573
#   39      0.0074     46.7559
#   40      0.4111     51.4876
#   41      0.0059     56.0341
#   42      0.2845     60.4520
#   43      0.0044     64.7831
#   44      0.2035     69.0606
#   45      0.0029     73.3124
#   46      0.1640     77.5631
#   47      0.0019     81.8355
#   48      0.1487     86.1522
#   49      0.0012     90.5365
#   50      0.1140     95.0137
#   51      0.0006     99.6126
#   52      0.0595    104.3673
#   53      0.0002    109.3204
#   54      0.0216    114.5270
#   55      0.0001    120.0633
#   56      0.0080    126.0400
#   57      0.0000    132.6334
#   58      0.0037    140.1586
#   59      0.0000    149.3050
#   60      0.0018    162.4651
   0    9.21303E+00    1.0000000000000000
   1    6.87149E+00    0.7458443772096274
   2    4.51852E+00    0.4904489878277484
   3    3.27710E+00    0.3557028296391427
   4    2.59518E+00    0.2816859493991601
   5    1.98829E+00    0.2158124190910465
   6    1.58137E+00    0.1716449329798287
   7    1.38527E+00    0.1503594218695895
   8    1.22278E+00    0.1327232474560806
   9    1.04267E+00    0.1131738885527994
  10    9.23813E-01    0.1002724676481660
  11    8.45057E-01    0.0917241332961532
  12    7.74189E-01    0.0840319274626486
  13    6.95442E-01    0.0754845784432112
  14    6.36987E-01    0.0691397707276278
  15    5.78120E-01    0.0627502971788468
  16    5.34869E-01    0.0580556908492125
  17    4.81870E-01    0.0523030519921546
  18    4.48567E-01    0.0486883407875290
  19    4.00589E-01    0.0434807356914765
  20    3.80302E-01    0.0412787402574168
  21    3.27939E-01    0.0355951411809346
  22    3.37143E-01    0.0365941218443763
  23    2.44969E-01    0.0265894357806002
  24    3.44702E-01    0.0374145836253581
  25    1.43260E-01    0.0155496686997088
  26    3.83079E-01    0.0415801322441162
