  # July 4, 2014 12:22:22
 # jmin,jmax    0   50
 # Eau     0.00200000
 # r0,ra,rb,rdel,tol,Bau,mu   3.5000  25.0000  25.0000   4.0000  1.0000E-03  3.0130E-07  6.8548E+03
 # parity bigJ  0  0        1  0        1  1        2  0        2  1        2  2        3  0        3  1        3  2        3  3
 # jmin,jmax,maxlamb are            0          50         100
 # j and jp are          21          26
 # lam  B-lambda(j,jp)  angle
#    5    153.2952      5.3647
#    6      1.0303      9.9084
#    7     54.9882     13.3959
#    8      0.7977     16.5151
#    9     31.0339     19.4484
#   10      0.6081     22.2740
#   11     20.2696     25.0327
#   12      0.4677     27.7490
#   13     13.9648     30.4391
#   14      0.3511     33.1140
#   15      9.9414     35.7822
#   16      0.2730     38.4500
#   17      7.2546     41.1230
#   18      0.2182     43.8056
#   19      5.3932     46.5020
#   20      0.1760     49.2159
#   21      4.1303     51.9509
#   22      0.1415     54.7107
#   23      3.1410     57.4987
#   24      0.1127     60.3186
#   25      2.4916     63.1743
#   26      0.0892     66.0698
#   27      2.0105     69.0095
#   28      0.0700     71.9983
#   29      1.6551     75.0412
#   30      0.0548     78.1444
#   31      1.4128     81.3145
#   32      0.0426     84.5590
#   33      1.1892     87.8868
#   34      0.0326     91.3080
#   35      1.0196     94.8349
#   36      0.0245     98.4820
#   37      0.9119    102.2671
#   38      0.0178    106.2122
#   39      0.8378    110.3453
#   40      0.0123    114.7030
#   41      0.7884    119.3345
#   42      0.0078    124.3091
#   43      0.7355    129.7295
#   44      0.0043    135.7601
#   45      0.6613    142.6970
#   46      0.0019    151.1892
#   47      0.7824    163.4849
   0    1.28548E+02    1.0000000000000000
   1    9.52152E+01    0.7406948773856991
   2    7.63346E+01    0.5938197414446043
   3    5.96474E+01    0.4640073320621060
   4    4.92844E+01    0.3833912704625101
   5    4.01432E+01    0.3122803147161293
   6    3.50533E+01    0.2726854224747715
   7    2.96232E+01    0.2304438731455588
   8    2.69748E+01    0.2098411035773882
   9    2.34460E+01    0.1823901129353789
  10    2.18401E+01    0.1698978077565307
  11    1.92567E+01    0.1498007855336280
  12    1.83317E+01    0.1426054096549786
  13    1.63171E+01    0.1269335584715565
  14    1.57868E+01    0.1228081133634586
  15    1.40733E+01    0.1094781573783727
  16    1.38431E+01    0.1076879079192846
  17    1.23461E+01    0.0960424285255314
  18    1.23323E+01    0.0959348389173652
  19    1.09854E+01    0.0854572046563597
  20    1.11755E+01    0.0869364044827409
  21    9.93315E+00    0.0772716089065468
  22    1.02338E+01    0.0796101148277973
  23    9.04816E+00    0.0703871492557746
  24    9.47198E+00    0.0736841297221154
  25    8.35740E+00    0.0650136374096595
  26    8.87360E+00    0.0690291977549044
  27    7.75818E+00    0.0603521486800799
  28    8.34632E+00    0.0649274126881751
  29    7.22009E+00    0.0561663077829955
  30    7.90443E+00    0.0614898691342714
  31    6.75993E+00    0.0525866038750380
  32    7.58376E+00    0.0589953601357233
  33    6.29452E+00    0.0489660999668885
  34    7.31371E+00    0.0568945630406839
  35    5.88415E+00    0.0457737454437037
  36    7.19325E+00    0.0559574844377099
  37    5.48893E+00    0.0426993291426533
  38    7.22377E+00    0.0561949306894696
  39    5.04663E+00    0.0392585558800494
  40    7.69940E+00    0.0598949051533258
  41    4.32941E+00    0.0336791991777443
  42    1.00559E+01    0.0782265858608801
