  # July 4, 2014 12:22:22
 # jmin,jmax    0   50
 # Eau     0.00200000
 # r0,ra,rb,rdel,tol,Bau,mu   3.5000  25.0000  25.0000   4.0000  1.0000E-03  3.0130E-07  6.8548E+03
 # parity bigJ  0  0        1  0        1  1        2  0        2  1        2  2        3  0        3  1        3  2        3  3
 # jmin,jmax,maxlamb are            0          50         100
 # j and jp are          28          46
 # lam  B-lambda(j,jp)  angle
#   18     18.0232      6.6706
#   19      1.0152     11.7935
#   20      6.7500     15.4645
#   21      0.8073     18.5680
#   22      4.1996     21.3550
#   23      0.6212     23.9382
#   24      2.9456     26.3796
#   25      0.4616     28.7173
#   26      2.0861     30.9765
#   27      0.3639     33.1753
#   28      1.5799     35.3267
#   29      0.2912     37.4409
#   30      1.3611     39.5258
#   31      0.2306     41.5876
#   32      1.1780     43.6317
#   33      0.1806     45.6625
#   34      0.9155     47.6837
#   35      0.1391     49.6987
#   36      0.7133     51.7104
#   37      0.1018     53.7214
#   38      0.6159     55.7343
#   39      0.0688     57.7512
#   40      0.5390     59.7743
#   41      0.0449     61.8057
#   42      0.4011     63.8473
#   43      0.0295     65.9012
#   44      0.2178     67.9693
#   45      0.0184     70.0537
#   46      0.1189     72.1563
#   47      0.0103     74.2792
#   48      0.1087     76.4247
#   49      0.0050     78.5951
#   50      0.0818     80.7929
#   51      0.0021     83.0206
#   52      0.0351     85.2812
#   53      0.0008     87.5777
#   54      0.0108     89.9135
#   55      0.0003     92.2925
#   56      0.0040     94.7188
#   57      0.0001     97.1973
#   58      0.0012     99.7332
#   59      0.0000    102.3328
#   60      0.0002    105.0033
#   61      0.0000    107.7529
#   62      0.0001    110.5917
#   63      0.0000    113.5316
#   64      0.0001    116.5871
#   65      0.0000    119.7763
#   66      0.0000    123.1223
#   67      0.0000    126.6550
#   68      0.0000    130.4148
#   69      0.0000    134.4586
#   70      0.0000    138.8705
#   71      0.0000    143.7855
#   72      0.0000    149.4462
#   73      0.0000    156.3835
#   74      0.0000    166.4334
   0    2.96110E+01    1.0000000000000000
   1    2.55685E+01    0.8634798814113716
   2    1.96351E+01    0.6631015903164692
   3    1.43383E+01    0.4842233158391772
   4    1.08776E+01    0.3673513749965375
   5    8.95063E+00    0.3022739404628300
   6    7.73174E+00    0.2611105945101322
   7    6.70881E+00    0.2265649204546208
   8    5.78416E+00    0.1953383779699863
   9    5.00923E+00    0.1691680270545219
  10    4.41531E+00    0.1491105321219324
  11    3.98619E+00    0.1346185353301839
  12    3.66073E+00    0.1236274609883226
  13    3.36458E+00    0.1136261053989714
  14    3.07642E+00    0.1038945902917820
  15    2.84093E+00    0.0959416112810388
  16    2.68829E+00    0.0907870313490713
  17    2.56788E+00    0.0867205104472814
  18    2.39983E+00    0.0810452012920070
  19    2.17707E+00    0.0735225275127325
  20    1.97187E+00    0.0665924750525479
  21    1.84012E+00    0.0621432273196434
  22    1.76102E+00    0.0594717811625296
  23    1.68295E+00    0.0568352191193547
  24    1.59075E+00    0.0537215761269536
  25    1.50312E+00    0.0507621913644372
  26    1.42994E+00    0.0482909307064488
  27    1.36127E+00    0.0459718484630841
  28    1.28981E+00    0.0435584118346546
  29    1.22144E+00    0.0412497121367031
  30    1.16352E+00    0.0392934806582530
  31    1.11431E+00    0.0376314671264543
  32    1.06772E+00    0.0360581454340121
  33    1.02089E+00    0.0344768774067380
  34    9.75564E-01    0.0329460170391340
  35    9.33776E-01    0.0315347934265323
  36    8.96218E-01    0.0302663802754911
  37    8.61829E-01    0.0291050379581728
  38    8.30447E-01    0.0280452222867734
  39    8.01128E-01    0.0270550797769056
  40    7.74197E-01    0.0261455871566629
  41    7.49691E-01    0.0253180101478561
  42    7.25744E-01    0.0245092765853515
  43    7.03628E-01    0.0237623969220203
  44    6.84194E-01    0.0231060821409300
  45    6.57727E-01    0.0222122438248410
  46    6.39255E-01    0.0215884238680663
  47    6.22534E-01    0.0210237398197067
  48    5.83686E-01    0.0197118009305164
  49    5.30253E-01    0.0179073049939834
  50    5.59537E-01    0.0188962474227944
  51    4.41578E-01    0.0149126273563179
  52    5.04120E-01    0.0170247579458792
  53    4.73232E-01    0.0159816497383457
  54    6.30344E-01    0.0212874953334930
  55    3.29466E-01    0.0111264739576333
  56    9.14627E-01    0.0308880865264829
