  # July 4, 2014 12:22:22
 # jmin,jmax    0   50
 # Eau     0.00200000
 # r0,ra,rb,rdel,tol,Bau,mu   3.5000  25.0000  25.0000   4.0000  1.0000E-03  3.0130E-07  6.8548E+03
 # parity bigJ  0  0        1  0        1  1        2  0        2  1        2  2        3  0        3  1        3  2        3  3
 # jmin,jmax,maxlamb are            0          50         100
 # j and jp are          18          48
 # lam  B-lambda(j,jp)  angle
#   30      3.7632     10.4495
#   31      0.0420     18.4046
#   32      1.6221     24.0527
#   33      0.0308     28.7917
#   34      1.0168     33.0214
#   35      0.0274     36.9231
#   36      0.6847     40.5972
#   37      0.0226     44.1064
#   38      0.5070     47.4930
#   39      0.0175     50.7877
#   40      0.3978     54.0134
#   41      0.0125     57.1882
#   42      0.3116     60.3268
#   43      0.0080     63.4417
#   44      0.2513     66.5437
#   45      0.0051     69.6426
#   46      0.2241     72.7474
#   47      0.0034     75.8665
#   48      0.1931     79.0086
#   49      0.0021     82.1819
#   50      0.1248     85.3954
#   51      0.0010     88.6583
#   52      0.0533     91.9808
#   53      0.0004     95.3741
#   54      0.0166     98.8511
#   55      0.0001    102.4268
#   56      0.0057    106.1189
#   57      0.0000    109.9491
#   58      0.0021    113.9446
#   59      0.0000    118.1407
#   60      0.0005    122.5841
#   61      0.0000    127.3405
#   62      0.0002    132.5070
#   63      0.0000    138.2385
#   64      0.0001    144.8137
#   65      0.0000    152.8427
#   66      0.0001    164.4390
   0    1.08243E+01    1.0000000000000000
   1    8.43248E+00    0.7790335721598316
   2    5.52951E+00    0.5108433037673384
   3    3.69537E+00    0.3413960233630668
   4    2.91554E+00    0.2693521878554795
   5    2.42268E+00    0.2238191055323062
   6    1.90932E+00    0.1763922450665683
   7    1.54368E+00    0.1426129898462971
   8    1.38871E+00    0.1282954440569114
   9    1.28266E+00    0.1184986727043559
  10    1.13138E+00    0.1045223126509236
  11    9.98676E-01    0.0922625659738894
  12    9.34630E-01    0.0863456211127750
  13    8.91163E-01    0.0823299741201161
  14    8.23358E-01    0.0760658571790404
  15    7.48501E-01    0.0691501377972513
  16    6.94658E-01    0.0641758826530501
  17    6.56610E-01    0.0606608150771624
  18    6.20538E-01    0.0573282963608153
  19    5.84177E-01    0.0539690850784746
  20    5.52351E-01    0.0510288894694275
  21    5.24417E-01    0.0484481640347856
  22    4.98659E-01    0.0460685834291934
  23    4.73320E-01    0.0437275986052103
  24    4.49309E-01    0.0415093835818878
  25    4.25433E-01    0.0393035350708252
  26    4.03464E-01    0.0372739843433668
  27    3.79293E-01    0.0350409394847879
  28    3.60071E-01    0.0332651470820818
  29    3.34902E-01    0.0309398347888991
  30    3.19954E-01    0.0295588883535351
  31    2.98594E-01    0.0275855638957110
  32    2.88144E-01    0.0266201300323939
  33    2.55325E-01    0.0235881727354054
  34    3.32356E-01    0.0307046615585401
  35    1.48548E-01    0.0137235616392787
  36    4.53407E-01    0.0418879099543959
