  # July 4, 2014 12:22:22
 # jmin,jmax    0   50
 # Eau     0.00200000
 # r0,ra,rb,rdel,tol,Bau,mu   3.5000  25.0000  25.0000   4.0000  1.0000E-03  3.0130E-07  6.8548E+03
 # parity bigJ  0  0        1  0        1  1        2  0        2  1        2  2        3  0        3  1        3  2        3  3
 # jmin,jmax,maxlamb are            0          50         100
 # j and jp are          24          28
 # lam  B-lambda(j,jp)  angle
#    4    630.4365      4.3353
#    5     18.6276      8.1196
#    6    127.0147     11.0742
#    7      6.1648     13.7479
#    8     46.6273     16.2828
#    9      2.4663     18.7384
#   10     21.5411     21.1453
#   11      1.1681     23.5217
#   12     11.0774     25.8791
#   13      0.6477     28.2256
#   14      6.4321     30.5670
#   15      0.3738     32.9079
#   16      4.0728     35.2519
#   17      0.2257     37.6021
#   18      2.7707     39.9613
#   19      0.1513     42.3317
#   20      2.0433     44.7159
#   21      0.1089     47.1158
#   22      1.6442     49.5338
#   23      0.0848     51.9719
#   24      1.3367     54.4323
#   25      0.0689     56.9174
#   26      1.1569     59.4295
#   27      0.0571     61.9712
#   28      1.0176     64.5451
#   29      0.0477     67.1541
#   30      0.8477     69.8015
#   31      0.0395     72.4907
#   32      0.7035     75.2255
#   33      0.0321     78.0102
#   34      0.6428     80.8496
#   35      0.0251     83.7491
#   36      0.5242     86.7148
#   37      0.0195     89.7537
#   38      0.3575     92.8742
#   39      0.0151     96.0858
#   40      0.2787     99.3999
#   41      0.0114    102.8303
#   42      0.2448    106.3937
#   43      0.0082    110.1111
#   44      0.2157    114.0089
#   45      0.0056    118.1219
#   46      0.2015    122.4967
#   47      0.0035    127.1991
#   48      0.1738    132.3266
#   49      0.0020    138.0352
#   50      0.1741    144.6061
#   51      0.0009    152.6549
#   52      0.3088    164.3133
   0    1.97031E+02    1.0000000000000000
   1    1.82058E+02    0.9240054787646483
   2    1.69696E+02    0.8612657968816193
   3    1.57216E+02    0.7979249547167511
   4    1.47082E+02    0.7464928000446968
   5    1.35992E+02    0.6902033713834038
   6    1.25984E+02    0.6394114166853776
   7    1.15749E+02    0.5874665517910905
   8    1.07123E+02    0.5436865211963234
   9    9.86429E+01    0.5006461467908223
  10    9.13378E+01    0.4635704248860357
  11    8.42732E+01    0.4277148214026992
  12    7.83213E+01    0.3975069105706981
  13    7.24684E+01    0.3678017095079311
  14    6.74683E+01    0.3424243622685139
  15    6.25862E+01    0.3176463504713699
  16    5.85282E+01    0.2970503398707515
  17    5.44650E+01    0.2764281089219378
  18    5.10190E+01    0.2589387632614728
  19    4.75707E+01    0.2414374899614420
  20    4.47591E+01    0.2271676693829612
  21    4.18237E+01    0.2122696295754414
  22    3.94332E+01    0.2001367745491117
  23    3.68663E+01    0.1871091951556041
  24    3.48608E+01    0.1769302957728504
  25    3.26319E+01    0.1656181737178871
  26    3.09384E+01    0.1570229441838542
  27    2.89839E+01    0.1471033178484929
  28    2.75509E+01    0.1398301881762161
  29    2.57975E+01    0.1309309190642554
  30    2.45800E+01    0.1247516224727247
  31    2.29833E+01    0.1166481713643765
  32    2.19331E+01    0.1113177472231813
  33    2.04793E+01    0.1039392427900350
  34    1.95479E+01    0.0992122184708629
  35    1.81260E+01    0.0919954894945208
  36    1.73978E+01    0.0882999198247029
  37    1.59037E+01    0.0807165149345529
  38    1.53984E+01    0.0781522252635420
  39    1.38717E+01    0.0704035447065282
  40    1.34961E+01    0.0684971996097997
  41    1.19119E+01    0.0604570415430096
  42    1.17583E+01    0.0596774039467869
  43    1.00188E+01    0.0508490167395174
  44    1.00611E+01    0.0510636703178577
  45    8.04790E+00    0.0408458212325317
  46    8.34249E+00    0.0423409719681453
  47    5.78321E+00    0.0293517649947353
  48    7.02511E+00    0.0356547961666594
