  # July 4, 2014 12:22:22
 # jmin,jmax    0   50
 # Eau     0.00200000
 # r0,ra,rb,rdel,tol,Bau,mu   3.5000  25.0000  25.0000   4.0000  1.0000E-03  3.0130E-07  6.8548E+03
 # parity bigJ  0  0        1  0        1  1        2  0        2  1        2  2        3  0        3  1        3  2        3  3
 # jmin,jmax,maxlamb are            0          50         100
 # j and jp are          23          46
 # lam  B-lambda(j,jp)  angle
#   23     17.7275      8.2989
#   24      0.9261     14.6340
#   25      7.2932     19.1479
#   26      0.6243     22.9457
#   27      4.8379     26.3422
#   28      0.4056     29.4799
#   29      3.5697     32.4369
#   30      0.2965     35.2619
#   31      2.5828     37.9876
#   32      0.2213     40.6369
#   33      1.7952     43.2271
#   34      0.1628     45.7715
#   35      1.2860     48.2806
#   36      0.1150     50.7630
#   37      1.0125     53.2260
#   38      0.0770     55.6758
#   39      0.7703     58.1177
#   40      0.0475     60.5568
#   41      0.4892     62.9975
#   42      0.0262     65.4439
#   43      0.3175     67.9001
#   44      0.0135     70.3700
#   45      0.2577     72.8573
#   46      0.0075     75.3659
#   47      0.1812     77.8998
#   48      0.0046     80.4630
#   49      0.0977     83.0600
#   50      0.0028     85.6953
#   51      0.0594     88.3739
#   52      0.0014     91.1015
#   53      0.0394     93.8841
#   54      0.0005     96.7287
#   55      0.0172     99.6434
#   56      0.0001    102.6372
#   57      0.0039    105.7210
#   58      0.0000    108.9078
#   59      0.0005    112.2131
#   60      0.0000    115.6566
#   61      0.0001    119.2627
#   62      0.0000    123.0635
#   63      0.0001    127.1021
#   64      0.0000    131.4389
#   65      0.0001    136.1637
#   66      0.0000    141.4199
#   67      0.0001    147.4655
#   68      0.0000    154.8655
#   69      0.0000    165.5750
   0    3.77056E+01    1.0000000000000000
   1    3.21624E+01    0.8529852379548992
   2    2.41860E+01    0.6414421556123131
   3    1.71518E+01    0.4548860923125449
   4    1.24181E+01    0.3293437119957094
   5    9.57210E+00    0.2538637975309747
   6    7.82291E+00    0.2074732651989985
   7    6.67751E+00    0.1770958115914701
   8    5.86513E+00    0.1555505936210052
   9    5.23128E+00    0.1387400839621454
  10    4.72044E+00    0.1251919413992765
  11    4.30811E+00    0.1142563711986935
  12    3.95733E+00    0.1049531538675894
  13    3.63223E+00    0.0963312180946520
  14    3.30813E+00    0.0877357170323418
  15    2.98615E+00    0.0791963711269323
  16    2.71405E+00    0.0719800356365835
  17    2.53822E+00    0.0673167732371991
  18    2.43108E+00    0.0644751653854695
  19    2.31660E+00    0.0614391281952135
  20    2.16644E+00    0.0574565764978210
  21    2.01643E+00    0.0534783430840214
  22    1.90089E+00    0.0504139489235065
  23    1.81236E+00    0.0480660409192520
  24    1.72949E+00    0.0458681961463934
  25    1.64553E+00    0.0436415692051706
  26    1.56721E+00    0.0415643460653635
  27    1.49877E+00    0.0397493033696159
  28    1.43948E+00    0.0381766910793661
  29    1.38649E+00    0.0367714251372723
  30    1.33889E+00    0.0355090152708330
  31    1.29579E+00    0.0343659396026544
  32    1.25749E+00    0.0333501797164358
  33    1.22328E+00    0.0324429185044649
  34    1.19167E+00    0.0316045832072693
  35    1.16430E+00    0.0308785841722251
  36    1.13686E+00    0.0301509182167628
  37    1.10521E+00    0.0293115936416620
  38    1.09248E+00    0.0289739417875709
  39    1.02946E+00    0.0273025634692472
  40    1.03679E+00    0.0274970129819704
  41    9.61966E-01    0.0255125129592294
  42    9.31681E-01    0.0247093335277981
  43    7.47175E-01    0.0198160164297978
  44    8.74678E-01    0.0231975534623581
  45    6.40593E-01    0.0169893292558619
  46    1.01829E+00    0.0270063079047112
