  # July 4, 2014 12:22:22
 # jmin,jmax    0   50
 # Eau     0.00200000
 # r0,ra,rb,rdel,tol,Bau,mu   3.5000  25.0000  25.0000   4.0000  1.0000E-03  3.0130E-07  6.8548E+03
 # parity bigJ  0  0        1  0        1  1        2  0        2  1        2  2        3  0        3  1        3  2        3  3
 # jmin,jmax,maxlamb are            0          50         100
 # j and jp are          21          47
 # lam  B-lambda(j,jp)  angle
#   26      7.1507      9.1240
#   27      0.1244     16.0749
#   28      3.1256     21.0170
#   29      0.0883     25.1675
#   30      2.1183     28.8741
#   31      0.0717     32.2939
#   32      1.6307     35.5140
#   33      0.0560     38.5881
#   34      1.1872     41.5526
#   35      0.0411     44.4335
#   36      0.7729     47.2500
#   37      0.0297     50.0171
#   38      0.5006     52.7468
#   39      0.0219     55.4492
#   40      0.3477     58.1325
#   41      0.0163     60.8041
#   42      0.2522     63.4706
#   43      0.0112     66.1378
#   44      0.1863     68.8114
#   45      0.0070     71.4966
#   46      0.1577     74.1986
#   47      0.0043     76.9226
#   48      0.1440     79.6739
#   49      0.0025     82.4579
#   50      0.1011     85.2804
#   51      0.0012     88.1477
#   52      0.0457     91.0664
#   53      0.0005     94.0441
#   54      0.0147     97.0894
#   55      0.0002    100.2120
#   56      0.0052    103.4233
#   57      0.0001    106.7368
#   58      0.0019    110.1689
#   59      0.0000    113.7395
#   60      0.0004    117.4742
#   61      0.0000    121.4061
#   62      0.0001    125.5793
#   63      0.0000    130.0562
#   64      0.0001    134.9288
#   65      0.0000    140.3445
#   66      0.0001    146.5684
#   67      0.0000    154.1805
#   68      0.0001    165.1898
   0    1.74078E+01    1.0000000000000000
   1    1.44569E+01    0.8304820703955744
   2    1.04387E+01    0.5996562882518557
   3    7.18513E+00    0.4127538843513592
   4    5.14532E+00    0.2955760441687262
   5    3.88176E+00    0.2229899830316459
   6    3.07280E+00    0.1765186950389188
   7    2.66064E+00    0.1528417136360816
   8    2.50335E+00    0.1438060644705927
   9    2.35656E+00    0.1353738932592586
  10    2.12378E+00    0.1220016807624978
  11    1.88437E+00    0.1082487262496572
  12    1.70254E+00    0.0978033985879672
  13    1.54922E+00    0.0889957562689336
  14    1.40038E+00    0.0804455006273356
  15    1.28558E+00    0.0738510807126303
  16    1.22151E+00    0.0701702273943499
  17    1.17532E+00    0.0675171359792087
  18    1.11663E+00    0.0641453733131513
  19    1.05067E+00    0.0603563563635508
  20    9.93081E-01    0.0570480952039853
  21    9.43825E-01    0.0542185572565421
  22    8.97377E-01    0.0515503012889059
  23    8.53281E-01    0.0490172027434532
  24    8.14687E-01    0.0468001279205452
  25    7.80916E-01    0.0448601528423550
  26    7.50384E-01    0.0431062068159144
  27    7.21787E-01    0.0414634449209034
  28    6.95795E-01    0.0399703300721481
  29    6.72838E-01    0.0386515512096823
  30    6.53654E-01    0.0375495042033377
  31    6.36842E-01    0.0365837420374142
  32    6.25919E-01    0.0359562835589332
  33    6.12630E-01    0.0351928731146502
  34    6.07347E-01    0.0348893922717503
  35    5.93523E-01    0.0340952515834740
  36    5.78748E-01    0.0332464863621703
  37    5.49532E-01    0.0315681731024778
  38    5.52289E-01    0.0317265545813867
  39    4.23563E-01    0.0243318253524747
  40    5.08974E-01    0.0292383136613507
  41    2.84003E-01    0.0163147308550360
  42    4.73841E-01    0.0272200533155787
