  # July 4, 2014 12:22:22
 # jmin,jmax    0   50
 # Eau     0.00200000
 # r0,ra,rb,rdel,tol,Bau,mu   3.5000  25.0000  25.0000   4.0000  1.0000E-03  3.0130E-07  6.8548E+03
 # parity bigJ  0  0        1  0        1  1        2  0        2  1        2  2        3  0        3  1        3  2        3  3
 # jmin,jmax,maxlamb are            0          50         100
 # j and jp are          22          23
 # lam  B-lambda(j,jp)  angle
#    1    945.8097      2.4919
#    2      2.9875      5.5749
#    3    166.1940      8.2730
#    4      1.4430     10.8799
#    5     71.9146     13.4522
#    6      1.0492     16.0105
#    7     40.9198     18.5644
#    8      0.7276     21.1198
#    9     26.1373     23.6804
#   10      0.5394     26.2493
#   11     17.9258     28.8288
#   12      0.4159     31.4211
#   13     12.7487     34.0283
#   14      0.3158     36.6525
#   15      9.2910     39.2956
#   16      0.2490     41.9598
#   17      6.8702     44.6472
#   18      0.2016     47.3600
#   19      5.1366     50.1008
#   20      0.1618     52.8722
#   21      3.9662     55.6768
#   22      0.1285     58.5178
#   23      3.0468     61.3986
#   24      0.1016     64.3227
#   25      2.4318     67.2943
#   26      0.0802     70.3178
#   27      1.9799     73.3984
#   28      0.0627     76.5419
#   29      1.6413     79.7548
#   30      0.0487     83.0446
#   31      1.4139     86.4201
#   32      0.0375     89.8916
#   33      1.2050     93.4713
#   34      0.0284     97.1739
#   35      1.0468    101.0174
#   36      0.0211    105.0240
#   37      0.9541    109.2223
#   38      0.0150    113.6492
#   39      0.9019    118.3547
#   40      0.0100    123.4092
#   41      0.8919    128.9170
#   42      0.0060    135.0451
#   43      0.9335    142.0946
#   44      0.0028    150.7247
#   45      1.2839    163.2213
   0    1.91946E+02    1.0000000000000000
   1    1.52818E+02    0.7961535606682276
   2    1.33507E+02    0.6955474328870668
   3    1.12939E+02    0.5883918821290850
   4    1.01617E+02    0.5294052944990426
   5    8.98909E+01    0.4683139162289109
   6    8.36264E+01    0.4356773934188589
   7    7.61202E+01    0.3965710953663003
   8    7.23283E+01    0.3768161162988020
   9    6.68097E+01    0.3480653815019312
  10    6.41211E+01    0.3340585056555206
  11    5.97458E+01    0.3112640649490404
  12    5.77960E+01    0.3011056393690414
  13    5.41279E+01    0.2819958365525885
  14    5.26370E+01    0.2742284823369759
  15    4.94849E+01    0.2578068432195845
  16    4.83646E+01    0.2519700008816078
  17    4.55698E+01    0.2374099303835281
  18    4.47267E+01    0.2330171015470443
  19    4.22246E+01    0.2199819674058406
  20    4.15824E+01    0.2166361859039609
  21    3.92599E+01    0.2045365555820722
  22    3.87973E+01    0.2021261652326228
  23    3.66594E+01    0.1909882218621434
  24    3.63690E+01    0.1894753311555301
  25    3.43256E+01    0.1788294332834312
  26    3.41645E+01    0.1779904802409019
  27    3.22019E+01    0.1677657242639259
  28    3.22063E+01    0.1677884437410185
  29    3.02938E+01    0.1578248273157947
  30    3.05056E+01    0.1589280376068675
  31    2.85279E+01    0.1486247993633668
  32    2.89636E+01    0.1508947911569514
  33    2.69293E+01    0.1402961466163686
  34    2.76481E+01    0.1440410776046771
  35    2.54187E+01    0.1324266832859704
  36    2.64911E+01    0.1380135008405638
  37    2.39548E+01    0.1247995719534701
  38    2.56408E+01    0.1335833274158149
  39    2.24465E+01    0.1169416600669254
  40    2.52682E+01    0.1316422026925858
  41    2.06969E+01    0.1078267480076950
  42    2.61881E+01    0.1364346330443293
  43    1.79367E+01    0.0934464516300342
  44    3.33783E+01    0.1738945848802960
