  # July 4, 2014 12:22:22
 # jmin,jmax    0   50
 # Eau     0.00200000
 # r0,ra,rb,rdel,tol,Bau,mu   3.5000  25.0000  25.0000   4.0000  1.0000E-03  3.0130E-07  6.8548E+03
 # parity bigJ  0  0        1  0        1  1        2  0        2  1        2  2        3  0        3  1        3  2        3  3
 # jmin,jmax,maxlamb are            0          50         100
 # j and jp are          32          38
 # lam  B-lambda(j,jp)  angle
#    6    282.2344      3.9664
#    7     18.2275      7.2480
#    8     75.3262      9.7303
#    9      9.8628     11.9247
#   10     31.7551     13.9690
#   11      5.0741     15.9225
#   12     16.3496     17.8165
#   13      3.0146     19.6696
#   14      9.6325     21.4936
#   15      1.9425     23.2969
#   16      6.2972     25.0852
#   17      1.3879     26.8631
#   18      4.3093     28.6338
#   19      1.0528     30.4001
#   20      3.2724     32.1643
#   21      0.7991     33.9281
#   22      2.5766     35.6932
#   23      0.6210     37.4610
#   24      2.0937     39.2328
#   25      0.5015     41.0097
#   26      1.6845     42.7928
#   27      0.3908     44.5832
#   28      1.2550     46.3818
#   29      0.2625     48.1895
#   30      0.9031     50.0075
#   31      0.1480     51.8365
#   32      0.7623     53.6776
#   33      0.0852     55.5318
#   34      0.6281     57.4000
#   35      0.0619     59.2833
#   36      0.4313     61.1829
#   37      0.0493     63.0997
#   38      0.3222     65.0351
#   39      0.0380     66.9902
#   40      0.2718     68.9665
#   41      0.0286     70.9653
#   42      0.2331     72.9883
#   43      0.0210     75.0371
#   44      0.1904     77.1134
#   45      0.0147     79.2193
#   46      0.1330     81.3568
#   47      0.0098     83.5284
#   48      0.1071     85.7367
#   49      0.0057     87.9844
#   50      0.0954     90.2748
#   51      0.0027     92.6115
#   52      0.0572     94.9986
#   53      0.0010     97.4405
#   54      0.0210     99.9427
#   55      0.0004    102.5110
#   56      0.0071    105.1527
#   57      0.0001    107.8758
#   58      0.0028    110.6904
#   59      0.0000    113.6082
#   60      0.0006    116.6438
#   61      0.0000    119.8152
#   62      0.0001    123.1453
#   63      0.0000    126.6642
#   64      0.0001    130.4123
#   65      0.0000    134.4464
#   66      0.0001    138.8509
#   67      0.0000    143.7609
#   68      0.0000    149.4193
#   69      0.0000    156.3581
#   70      0.0000    166.4156
   0    1.19565E+02    1.0000000000000000
   1    1.12672E+02    0.9423476143039003
   2    1.02346E+02    0.8559900068953267
   3    9.21421E+01    0.7706443170277264
   4    8.33650E+01    0.6972363255705650
   5    7.57984E+01    0.6339514269561639
   6    6.91817E+01    0.5786116611254557
   7    6.34174E+01    0.5304014939481132
   8    5.82492E+01    0.4871757425129513
   9    5.34181E+01    0.4467701000700321
  10    4.89000E+01    0.4089824540390943
  11    4.47709E+01    0.3744485187977353
  12    4.10408E+01    0.3432508068119021
  13    3.76976E+01    0.3152897452617566
  14    3.47451E+01    0.2905958550390885
  15    3.21405E+01    0.2688124248361461
  16    2.98078E+01    0.2493023752581088
  17    2.77138E+01    0.2317882554015377
  18    2.58456E+01    0.2161635602726117
  19    2.41465E+01    0.2019528540705298
  20    2.25669E+01    0.1887416988514005
  21    2.11307E+01    0.1767298485249391
  22    1.98759E+01    0.1662349606909140
  23    1.87768E+01    0.1570426505493855
  24    1.77779E+01    0.1486878516482114
  25    1.68497E+01    0.1409253325450848
  26    1.59852E+01    0.1336946151858886
  27    1.51803E+01    0.1269630759358017
  28    1.44418E+01    0.1207865162219419
  29    1.37770E+01    0.1152264755109019
  30    1.31738E+01    0.1101807106762098
  31    1.26030E+01    0.1054069343928189
  32    1.20485E+01    0.1007694799496082
  33    1.15153E+01    0.0963101415058957
  34    1.10134E+01    0.0921125854734330
  35    1.05440E+01    0.0881862811748360
  36    1.00991E+01    0.0844655340442460
  37    9.67211E+00    0.0808941924077989
  38    9.26423E+00    0.0774828199782963
  39    8.86923E+00    0.0741791328810012
  40    8.49620E+00    0.0710592445948948
  41    8.12991E+00    0.0679957432650718
  42    7.77672E+00    0.0650417861557211
  43    7.42882E+00    0.0621321175647174
  44    7.09434E+00    0.0593345696495038
  45    6.74121E+00    0.0563811169912640
  46    6.46160E+00    0.0540425993056010
  47    6.08770E+00    0.0509154536776326
  48    5.86187E+00    0.0490266739150381
  49    5.50422E+00    0.0460354099403910
  50    5.30860E+00    0.0443993048752547
  51    4.93905E+00    0.0413084695730340
  52    4.77472E+00    0.0399341218884816
  53    4.38917E+00    0.0367094576961993
  54    4.28360E+00    0.0358265285481594
  55    3.80763E+00    0.0318456915285785
  56    3.74368E+00    0.0313108489676614
  57    3.31818E+00    0.0277521229305919
  58    3.30871E+00    0.0276728846061890
  59    2.72417E+00    0.0227840529675351
  60    2.95464E+00    0.0247115835855154
  61    2.21339E+00    0.0185120568566218
  62    2.61546E+00    0.0218747897341019
  63    1.47516E+00    0.0123377204089940
  64    2.75571E+00    0.0230478148575115
