  # July 4, 2014 12:22:22
 # jmin,jmax    0   50
 # Eau     0.00200000
 # r0,ra,rb,rdel,tol,Bau,mu   3.5000  25.0000  25.0000   4.0000  1.0000E-03  3.0130E-07  6.8548E+03
 # parity bigJ  0  0        1  0        1  1        2  0        2  1        2  2        3  0        3  1        3  2        3  3
 # jmin,jmax,maxlamb are            0          50         100
 # j and jp are          21          35
 # lam  B-lambda(j,jp)  angle
#   14     26.3952      7.7494
#   15      1.5045     13.7824
#   16      8.6338     18.1514
#   17      0.7258     21.8817
#   18      4.5903     25.2624
#   19      0.3559     28.4227
#   20      2.9658     31.4334
#   21      0.1737     34.3382
#   22      2.1036     37.1660
#   23      0.0983     39.9377
#   24      1.6169     42.6686
#   25      0.0706     45.3705
#   26      1.3511     48.0530
#   27      0.0582     50.7242
#   28      1.1331     53.3907
#   29      0.0500     56.0585
#   30      0.9056     58.7331
#   31      0.0429     61.4194
#   32      0.7518     64.1222
#   33      0.0354     66.8462
#   34      0.6651     69.5959
#   35      0.0280     72.3762
#   36      0.4993     75.1920
#   37      0.0220     78.0484
#   38      0.3363     80.9509
#   39      0.0174     83.9057
#   40      0.2695     86.9196
#   41      0.0133     90.0000
#   42      0.2298     93.1556
#   43      0.0098     96.3964
#   44      0.2000     99.7341
#   45      0.0068    103.1827
#   46      0.1704    106.7591
#   47      0.0045    110.4842
#   48      0.1300    114.3847
#   49      0.0028    118.4951
#   50      0.1206    122.8620
#   51      0.0015    127.5506
#   52      0.1207    132.6577
#   53      0.0006    138.3383
#   54      0.0875    144.8710
#   55      0.0001    152.8664
#   56      0.0590    164.4386
   0    3.82648E+01    1.0000000000000000
   1    2.97454E+01    0.7773566846479250
   2    2.27500E+01    0.5945402193191841
   3    1.79316E+01    0.4686178404753260
   4    1.48420E+01    0.3878765105844268
   5    1.26560E+01    0.3307487995419275
   6    1.08508E+01    0.2835720388911245
   7    9.14710E+00    0.2390473648987683
   8    7.83964E+00    0.2048785599342689
   9    6.70997E+00    0.1753561467589821
  10    6.01416E+00    0.1571721322282078
  11    5.26982E+00    0.1377196658671971
  12    4.73656E+00    0.1237837792081201
  13    4.22383E+00    0.1103841365102249
  14    3.95241E+00    0.1032910332195467
  15    3.54553E+00    0.0926576476765779
  16    3.32106E+00    0.0867916277675476
  17    2.92713E+00    0.0764966539251248
  18    2.81087E+00    0.0734583721828601
  19    2.53184E+00    0.0661664201139690
  20    2.49083E+00    0.0650946206657721
  21    2.19331E+00    0.0573193761713518
  22    2.16286E+00    0.0565233733998289
  23    1.90689E+00    0.0498340426145415
  24    1.90904E+00    0.0498903291773812
  25    1.67515E+00    0.0437777305603076
  26    1.68384E+00    0.0440048720495266
  27    1.46158E+00    0.0381963845486443
  28    1.50375E+00    0.0392984498733986
  29    1.27307E+00    0.0332700228595379
  30    1.35467E+00    0.0354026050261904
  31    1.11024E+00    0.0290145573855367
  32    1.22279E+00    0.0319560691844344
  33    9.70591E-01    0.0253651252915123
  34    1.13673E+00    0.0297070470214322
  35    8.48757E-01    0.0221811402381160
  36    1.04397E+00    0.0272828983665458
  37    7.76561E-01    0.0202943885331913
  38    1.02426E+00    0.0267676608563983
  39    5.77718E-01    0.0150979076126358
  40    1.10882E+00    0.0289775669294886
  41    4.32015E-01    0.0112901534189498
  42    1.50891E+00    0.0394334139201090
