  # July 4, 2014 12:22:22
 # jmin,jmax    0   50
 # Eau     0.00200000
 # r0,ra,rb,rdel,tol,Bau,mu   3.5000  25.0000  25.0000   4.0000  1.0000E-03  3.0130E-07  6.8548E+03
 # parity bigJ  0  0        1  0        1  1        2  0        2  1        2  2        3  0        3  1        3  2        3  3
 # jmin,jmax,maxlamb are            0          50         100
 # j and jp are          30          43
 # lam  B-lambda(j,jp)  angle
#   13     57.2051      5.6674
#   14      4.7651     10.0822
#   15     24.2291     13.2824
#   16      2.9559     16.0154
#   17     15.1441     18.4913
#   18      2.1701     20.8038
#   19      9.9257     23.0039
#   20      1.6835     25.1227
#   21      7.0086     27.1808
#   22      1.2977     29.1927
#   23      5.4202     31.1689
#   24      0.9939     33.1174
#   25      4.0336     35.0446
#   26      0.7115     36.9553
#   27      2.8339     38.8537
#   28      0.4671     40.7432
#   29      2.0562     42.6269
#   30      0.3026     44.5071
#   31      1.6736     46.3862
#   32      0.2044     48.2663
#   33      1.4469     50.1491
#   34      0.1415     52.0364
#   35      1.1470     53.9299
#   36      0.0976     55.8310
#   37      0.8916     57.7414
#   38      0.0649     59.6624
#   39      0.7349     61.5955
#   40      0.0409     63.5422
#   41      0.5386     65.5040
#   42      0.0256     67.4824
#   43      0.3380     69.4790
#   44      0.0166     71.4954
#   45      0.2235     73.5334
#   46      0.0106     75.5948
#   47      0.1466     77.6815
#   48      0.0065     79.7956
#   49      0.0842     81.9394
#   50      0.0038     84.1153
#   51      0.0564     86.3260
#   52      0.0019     88.5745
#   53      0.0385     90.8639
#   54      0.0007     93.1980
#   55      0.0167     95.5808
#   56      0.0001     98.0170
#   57      0.0036    100.5118
#   58      0.0000    103.0712
#   59      0.0004    105.7024
#   60      0.0000    108.4135
#   61      0.0001    111.2144
#   62      0.0000    114.1169
#   63      0.0001    117.1353
#   64      0.0000    120.2876
#   65      0.0001    123.5966
#   66      0.0000    127.0921
#   67      0.0000    130.8142
#   68      0.0000    134.8191
#   69      0.0000    139.1906
#   70      0.0000    144.0626
#   71      0.0000    149.6760
#   72      0.0000    156.5580
#   73      0.0000    166.5309
   0    7.42479E+01    1.0000000000000000
   1    6.62211E+01    0.8918909219811793
   2    5.39936E+01    0.7272062964389074
   3    4.21154E+01    0.5672265180165454
   4    3.29696E+01    0.4440474900416501
   5    2.65139E+01    0.3570994879650619
   6    2.17986E+01    0.2935924353313512
   7    1.81535E+01    0.2444988614722675
   8    1.53350E+01    0.2065374821863648
   9    1.32492E+01    0.1784453253788535
  10    1.17668E+01    0.1584798572019362
  11    1.06755E+01    0.1437814720892753
  12    9.74813E+00    0.1312916410852213
  13    8.86781E+00    0.1194351079434958
  14    8.05203E+00    0.1084478656125300
  15    7.35120E+00    0.0990087884390821
  16    6.77589E+00    0.0912602704022837
  17    6.31622E+00    0.0850692763783432
  18    5.96297E+00    0.0803116144414828
  19    5.69288E+00    0.0766739386689498
  20    5.46947E+00    0.0736649736490633
  21    5.26031E+00    0.0708478708741789
  22    5.03697E+00    0.0678399271463067
  23    4.77926E+00    0.0643689354468524
  24    4.50121E+00    0.0606240677645541
  25    4.24966E+00    0.0572360624543803
  26    4.05602E+00    0.0546280764598398
  27    3.90491E+00    0.0525928591256367
  28    3.76278E+00    0.0506785682560500
  29    3.61863E+00    0.0487370877483830
  30    3.48519E+00    0.0469398873344646
  31    3.37235E+00    0.0454201391197498
  32    3.27577E+00    0.0441193559067254
  33    3.18473E+00    0.0428931499311529
  34    3.09393E+00    0.0416702858068721
  35    3.00384E+00    0.0404568741257875
  36    2.91755E+00    0.0392946555244503
  37    2.83703E+00    0.0382101636812780
  38    2.76272E+00    0.0372094246091941
  39    2.69336E+00    0.0362751750568776
  40    2.62814E+00    0.0353968178658269
  41    2.56456E+00    0.0345404449173997
  42    2.50176E+00    0.0336947273833025
  43    2.44110E+00    0.0328777103354537
  44    2.37528E+00    0.0319911706053260
  45    2.31013E+00    0.0311136849480864
  46    2.24820E+00    0.0302796671410489
  47    2.15324E+00    0.0290007000172103
  48    2.10177E+00    0.0283075061384659
  49    1.98323E+00    0.0267109563278970
  50    1.92070E+00    0.0258687735349165
  51    1.79540E+00    0.0241811388511135
  52    1.80251E+00    0.0242768946952828
  53    1.63601E+00    0.0220344299996621
  54    1.67582E+00    0.0225705728357357
  55    1.50196E+00    0.0202290073755377
  56    1.75786E+00    0.0236755319317810
  57    1.33608E+00    0.0179947842940093
  58    1.81073E+00    0.0243875574279174
  59    8.83808E-01    0.0119034720760422
  60    2.13175E+00    0.0287112157010798
