  # July 4, 2014 12:22:22
 # jmin,jmax    0   50
 # Eau     0.00200000
 # r0,ra,rb,rdel,tol,Bau,mu   3.5000  25.0000  25.0000   4.0000  1.0000E-03  3.0130E-07  6.8548E+03
 # parity bigJ  0  0        1  0        1  1        2  0        2  1        2  2        3  0        3  1        3  2        3  3
 # jmin,jmax,maxlamb are            0          50         100
 # j and jp are          30          39
 # lam  B-lambda(j,jp)  angle
#    9     95.9660      4.9496
#   10      4.5564      8.8967
#   11     39.3522     11.8087
#   12      2.5938     14.3330
#   13     23.9071     16.6485
#   14      1.9089     18.8341
#   15     15.6469     20.9322
#   16      1.4860     22.9684
#   17     10.6841     24.9595
#   18      1.1466     26.9171
#   19      7.6060     28.8497
#   20      0.8450     30.7637
#   21      5.4160     32.6641
#   22      0.5900     34.5548
#   23      4.2413     36.4391
#   24      0.4272     38.3197
#   25      3.2573     40.1990
#   26      0.3327     42.0790
#   27      2.3923     43.9616
#   28      0.2495     45.8484
#   29      1.9235     47.7410
#   30      0.1766     49.6409
#   31      1.5604     51.5494
#   32      0.1293     53.4680
#   33      1.2418     55.3979
#   34      0.0971     57.3404
#   35      1.0161     59.2969
#   36      0.0721     61.2688
#   37      0.8629     63.2574
#   38      0.0534     65.2643
#   39      0.7397     67.2907
#   40      0.0377     69.3385
#   41      0.5698     71.4092
#   42      0.0248     73.5047
#   43      0.3714     75.6268
#   44      0.0160     77.7776
#   45      0.2391     79.9593
#   46      0.0103     82.1745
#   47      0.1636     84.4257
#   48      0.0064     86.7160
#   49      0.0996     89.0486
#   50      0.0038     91.4272
#   51      0.0628     93.8560
#   52      0.0021     96.3395
#   53      0.0460     98.8833
#   54      0.0008    101.4933
#   55      0.0250    104.1769
#   56      0.0002    106.9423
#   57      0.0074    109.7996
#   58      0.0000    112.7608
#   59      0.0010    115.8406
#   60      0.0000    119.0572
#   61      0.0001    122.4339
#   62      0.0000    126.0010
#   63      0.0001    129.7996
#   64      0.0000    133.8870
#   65      0.0001    138.3487
#   66      0.0000    143.3213
#   67      0.0001    149.0508
#   68      0.0000    156.0752
#   69      0.0001    166.2553
   0    9.15776E+01    1.0000000000000000
   1    8.14774E+01    0.8897087193451032
   2    6.69071E+01    0.7306060549269294
   3    5.36941E+01    0.5863233907790926
   4    4.38681E+01    0.4790267457268808
   5    3.65771E+01    0.3994110565564922
   6    3.07236E+01    0.3354925914433382
   7    2.59404E+01    0.2832616376775511
   8    2.22073E+01    0.2424975428105451
   9    1.94297E+01    0.2121667576143937
  10    1.73216E+01    0.1891473011786609
  11    1.55626E+01    0.1699392156599424
  12    1.40349E+01    0.1532571313664115
  13    1.27865E+01    0.1396245834730131
  14    1.18137E+01    0.1290016832127210
  15    1.10185E+01    0.1203189541436579
  16    1.03166E+01    0.1126537850082602
  17    9.67646E+00    0.1056641384795977
  18    9.10529E+00    0.0994270463050626
  19    8.61906E+00    0.0941175825756791
  20    8.19661E+00    0.0895045362927974
  21    7.78611E+00    0.0850219769878415
  22    7.38011E+00    0.0805886292160582
  23    7.02171E+00    0.0766750263124546
  24    6.73274E+00    0.0735195119679342
  25    6.48703E+00    0.0708364095395353
  26    6.25727E+00    0.0683275735022187
  27    6.03731E+00    0.0659256593792167
  28    5.82449E+00    0.0636016971097891
  29    5.61121E+00    0.0612727423365087
  30    5.39951E+00    0.0589610926745102
  31    5.20337E+00    0.0568192624184750
  32    5.03647E+00    0.0549967887642982
  33    4.89976E+00    0.0535039753726141
  34    4.78409E+00    0.0522408301478214
  35    4.67769E+00    0.0510790068785636
  36    4.56980E+00    0.0499009085742627
  37    4.45968E+00    0.0486983939221290
  38    4.34910E+00    0.0474908568856089
  39    4.23549E+00    0.0462503482373094
  40    4.14549E+00    0.0452675745283615
  41    4.03016E+00    0.0440081883751150
  42    3.97324E+00    0.0433865911700848
  43    3.85808E+00    0.0421291362102113
  44    3.81937E+00    0.0417063816021516
  45    3.71115E+00    0.0405246149344231
  46    3.69290E+00    0.0403253983431314
  47    3.55522E+00    0.0388219930037729
  48    3.57576E+00    0.0390462623481580
  49    3.37463E+00    0.0368499334130580
  50    3.39350E+00    0.0370560137539510
  51    3.13100E+00    0.0341895606753178
  52    3.27149E+00    0.0357237007931800
  53    2.88196E+00    0.0314701684115498
  54    3.28456E+00    0.0358664708627952
  55    2.59357E+00    0.0283209928514525
  56    3.13780E+00    0.0342638885601343
  57    2.18451E+00    0.0238542397597662
  58    3.10094E+00    0.0338613929067403
  59    1.77865E+00    0.0194223722965336
  60    3.70431E+00    0.0404500121651997
