  # July 4, 2014 12:22:22
 # jmin,jmax    0   50
 # Eau     0.00200000
 # r0,ra,rb,rdel,tol,Bau,mu   3.5000  25.0000  25.0000   4.0000  1.0000E-03  3.0130E-07  6.8548E+03
 # parity bigJ  0  0        1  0        1  1        2  0        2  1        2  2        3  0        3  1        3  2        3  3
 # jmin,jmax,maxlamb are            0          50         100
 # j and jp are          19          32
 # lam  B-lambda(j,jp)  angle
#   13     43.6303      8.1938
#   14      0.6333     14.6041
#   15     17.2499     19.2634
#   16      0.4092     23.2554
#   17     10.3140     26.8848
#   18      0.2866     30.2879
#   19      6.9844     33.5391
#   20      0.2097     36.6846
#   21      5.0293     39.7550
#   22      0.1637     42.7725
#   23      3.6622     45.7534
#   24      0.1305     48.7107
#   25      2.7989     51.6550
#   26      0.1019     54.5950
#   27      2.1647     57.5387
#   28      0.0786     60.4931
#   29      1.7430     63.4648
#   30      0.0616     66.4600
#   31      1.4542     69.4850
#   32      0.0485     72.5462
#   33      1.1912     75.6501
#   34      0.0377     78.8038
#   35      0.9999     82.0148
#   36      0.0288     85.2914
#   37      0.8702     88.6432
#   38      0.0215     92.0808
#   39      0.7712     95.6168
#   40      0.0154     99.2660
#   41      0.6856    103.0465
#   42      0.0102    106.9804
#   43      0.5708    111.0955
#   44      0.0062    115.4284
#   45      0.4175    120.0279
#   46      0.0036    124.9623
#   47      0.2968    130.3332
#   48      0.0020    136.3032
#   49      0.2530    143.1643
#   50      0.0009    151.5567
#   51      0.3125    163.6985
   0    7.52557E+01    1.0000000000000000
   1    5.37479E+01    0.7142032688965145
   2    3.91085E+01    0.5196753482693194
   3    2.94883E+01    0.3918415392943017
   4    2.35484E+01    0.3129115445450304
   5    1.82891E+01    0.2430258045495704
   6    1.56472E+01    0.2079199694781038
   7    1.30626E+01    0.1735758805180633
   8    1.15815E+01    0.1538956645785844
   9    1.00089E+01    0.1329981468844166
  10    9.28140E+00    0.1233315943149208
  11    8.10017E+00    0.1076353867030859
  12    7.63199E+00    0.1014141523062564
  13    6.75744E+00    0.0897931377869353
  14    6.50671E+00    0.0864614128176445
  15    5.81546E+00    0.0772759934199144
  16    5.69283E+00    0.0756465217754635
  17    5.08140E+00    0.0675218252020522
  18    5.05536E+00    0.0671758176382240
  19    4.51602E+00    0.0600090675489514
  20    4.57452E+00    0.0607864014226733
  21    4.01856E+00    0.0533987898948702
  22    4.15166E+00    0.0551674511103521
  23    3.56433E+00    0.0473629595314186
  24    3.83402E+00    0.0509466041807291
  25    3.19051E+00    0.0423956003269774
  26    3.59021E+00    0.0477068843115794
  27    2.85348E+00    0.0379171461712181
  28    3.36402E+00    0.0447011476499780
  29    2.54192E+00    0.0337771178882208
  30    3.15106E+00    0.0418713973781282
  31    2.25433E+00    0.0299555550570938
  32    3.00398E+00    0.0399169800682196
  33    2.03064E+00    0.0269832245138463
  34    2.91675E+00    0.0387579216547228
  35    1.74655E+00    0.0232081576018162
  36    2.97151E+00    0.0394855629100215
  37    1.37446E+00    0.0182638780971557
  38    3.56798E+00    0.0474113930079271
