  # July 4, 2014 12:22:22
 # jmin,jmax    0   50
 # Eau     0.00200000
 # r0,ra,rb,rdel,tol,Bau,mu   3.5000  25.0000  25.0000   4.0000  1.0000E-03  3.0130E-07  6.8548E+03
 # parity bigJ  0  0        1  0        1  1        2  0        2  1        2  2        3  0        3  1        3  2        3  3
 # jmin,jmax,maxlamb are            0          50         100
 # j and jp are          19          39
 # lam  B-lambda(j,jp)  angle
#   20     10.6643      9.2143
#   21      0.5454     16.2968
#   22      4.0829     21.3699
#   23      0.3194     25.6606
#   24      2.4861     29.5177
#   25      0.1679     33.0985
#   26      1.8397     36.4897
#   27      0.0903     39.7451
#   28      1.3929     42.9011
#   29      0.0574     45.9836
#   30      1.0062     49.0121
#   31      0.0451     52.0018
#   32      0.7984     54.9652
#   33      0.0367     57.9125
#   34      0.6817     60.8529
#   35      0.0279     63.7943
#   36      0.4907     66.7441
#   37      0.0214     69.7094
#   38      0.3353     72.6968
#   39      0.0169     75.7133
#   40      0.2726     78.7657
#   41      0.0130     81.8613
#   42      0.2292     85.0078
#   43      0.0095     88.2137
#   44      0.1971     91.4885
#   45      0.0066     94.8428
#   46      0.1574     98.2891
#   47      0.0044    101.8419
#   48      0.1179    105.5188
#   49      0.0028    109.3414
#   50      0.1109    113.3369
#   51      0.0014    117.5406
#   52      0.0963    121.9997
#   53      0.0006    126.7806
#   54      0.0544    131.9813
#   55      0.0002    137.7589
#   56      0.0227    144.3956
#   57      0.0000    152.5096
#   58      0.0152    164.2423
   0    2.39154E+01    1.0000000000000000
   1    1.79595E+01    0.7509621499465239
   2    1.25085E+01    0.5230317608921702
   3    9.13581E+00    0.3820054024331535
   4    6.91090E+00    0.2889728798573960
   5    5.54121E+00    0.2317007390046732
   6    4.71370E+00    0.1970990359359448
   7    3.97951E+00    0.1663994204015462
   8    3.44888E+00    0.1442119852896331
   9    2.97755E+00    0.1245036734179669
  10    2.63937E+00    0.1103628381645201
  11    2.40390E+00    0.1005168071739336
  12    2.19372E+00    0.0917286073766948
  13    1.92041E+00    0.0803003300608981
  14    1.74189E+00    0.0728357490026877
  15    1.58899E+00    0.0664422595084187
  16    1.52076E+00    0.0635891623194308
  17    1.42171E+00    0.0594476347506801
  18    1.36730E+00    0.0571725401607351
  19    1.21929E+00    0.0509833193408538
  20    1.17387E+00    0.0490844635913433
  21    1.04306E+00    0.0436145513732910
  22    1.05933E+00    0.0442950412805746
  23    9.13183E-01    0.0381838950033736
  24    9.56654E-01    0.0400016108196244
  25    7.95964E-01    0.0332824985617753
  26    8.64938E-01    0.0361665800214819
  27    7.12307E-01    0.0297844653770109
  28    7.90417E-01    0.0330505529974105
  29    6.46637E-01    0.0270385174192511
  30    7.51635E-01    0.0314289212861513
  31    5.85822E-01    0.0244955960756354
  32    7.44664E-01    0.0311374593287565
  33    5.64048E-01    0.0235851596309414
  34    7.80443E-01    0.0326335211384725
  35    4.98431E-01    0.0208414391744125
  36    7.30623E-01    0.0305503480349959
  37    4.16924E-01    0.0174333067984032
  38    9.80945E-01    0.0410173298094950
