  # July 4, 2014 12:22:22
 # jmin,jmax    0   50
 # Eau     0.00200000
 # r0,ra,rb,rdel,tol,Bau,mu   3.5000  25.0000  25.0000   4.0000  1.0000E-03  3.0130E-07  6.8548E+03
 # parity bigJ  0  0        1  0        1  1        2  0        2  1        2  2        3  0        3  1        3  2        3  3
 # jmin,jmax,maxlamb are            0          50         100
 # j and jp are          20          31
 # lam  B-lambda(j,jp)  angle
#   11     57.0005      7.4689
#   12      0.3984     13.3632
#   13     22.7370     17.6768
#   14      0.3525     21.3938
#   15     13.6127     24.7892
#   16      0.3046     27.9852
#   17      9.0305     31.0485
#   18      0.2528     34.0197
#   19      6.4144     36.9263
#   20      0.2010     39.7874
#   21      4.7114     42.6175
#   22      0.1621     45.4278
#   23      3.4643     48.2275
#   24      0.1299     51.0242
#   25      2.6954     53.8244
#   26      0.1022     56.6343
#   27      2.1253     59.4592
#   28      0.0808     62.3045
#   29      1.7246     65.1752
#   30      0.0644     68.0765
#   31      1.4437     71.0138
#   32      0.0507     73.9924
#   33      1.1874     77.0183
#   34      0.0395     80.0979
#   35      0.9985     83.2382
#   36      0.0303     86.4471
#   37      0.8693     89.7337
#   38      0.0226     93.1083
#   39      0.7721     96.5831
#   40      0.0160    100.1726
#   41      0.6898    103.8944
#   42      0.0106    107.7702
#   43      0.5775    111.8278
#   44      0.0065    116.1029
#   45      0.4244    120.6439
#   46      0.0038    125.5185
#   47      0.3014    130.8272
#   48      0.0020    136.7310
#   49      0.2566    143.5193
#   50      0.0009    151.8262
#   51      0.3187    163.8487
   0    8.50802E+01    1.0000000000000000
   1    6.22536E+01    0.7317047670188195
   2    4.61668E+01    0.5426271683813174
   3    3.52467E+01    0.4142763197405164
   4    2.82201E+01    0.3316887516717102
   5    2.21220E+01    0.2600131188790077
   6    1.88685E+01    0.2217725102759150
   7    1.57828E+01    0.1855047230312667
   8    1.39567E+01    0.1640414852072041
   9    1.21402E+01    0.1426917393466297
  10    1.12192E+01    0.1318663995828264
  11    9.87658E+00    0.1160854971239813
  12    9.28637E+00    0.1091483876947402
  13    8.30368E+00    0.0975983091010136
  14    7.96272E+00    0.0935907598569014
  15    7.19331E+00    0.0845473770350254
  16    7.00625E+00    0.0823487581642737
  17    6.34182E+00    0.0745393490935086
  18    6.26244E+00    0.0736062696996834
  19    5.66525E+00    0.0665871365716681
  20    5.65709E+00    0.0664912693576384
  21    5.05527E+00    0.0594177404014998
  22    5.14912E+00    0.0605207914563666
  23    4.55389E+00    0.0535246268858099
  24    4.78953E+00    0.0562942541073950
  25    4.13683E+00    0.0486226745388788
  26    4.48574E+00    0.0527237030713952
  27    3.74510E+00    0.0440185045566150
  28    4.21120E+00    0.0494968299166349
  29    3.40648E+00    0.0400384056245253
  30    3.97725E+00    0.0467470096952813
  31    3.11507E+00    0.0366133834920758
  32    3.78353E+00    0.0444701781394747
  33    2.82105E+00    0.0331575389040031
  34    3.57181E+00    0.0419816533575550
  35    2.50311E+00    0.0294205325180011
  36    3.48376E+00    0.0409468263379397
  37    2.17943E+00    0.0256161658046872
  38    3.55692E+00    0.0418066278380223
  39    1.75054E+00    0.0205752077551002
  40    4.26920E+00    0.0501784828787105
