  # July 4, 2014 12:22:22
 # jmin,jmax    0   50
 # Eau     0.00200000
 # r0,ra,rb,rdel,tol,Bau,mu   3.5000  25.0000  25.0000   4.0000  1.0000E-03  3.0130E-07  6.8548E+03
 # parity bigJ  0  0        1  0        1  1        2  0        2  1        2  2        3  0        3  1        3  2        3  3
 # jmin,jmax,maxlamb are            0          50         100
 # j and jp are          22          34
 # lam  B-lambda(j,jp)  angle
#   12     38.3464      7.1159
#   13      2.5208     12.6974
#   14     12.6385     16.7636
#   15      1.0914     20.2531
#   16      6.6609     23.4290
#   17      0.6845     26.4086
#   18      4.1110     29.2555
#   19      0.4614     32.0091
#   20      2.8236     34.6954
#   21      0.2994     37.3328
#   22      2.0507     39.9348
#   23      0.1851     42.5120
#   24      1.5652     45.0729
#   25      0.1125     47.6243
#   26      1.2993     50.1722
#   27      0.0727     52.7216
#   28      1.1016     55.2773
#   29      0.0543     57.8436
#   30      0.8909     60.4244
#   31      0.0451     63.0237
#   32      0.7386     65.6454
#   33      0.0371     68.2932
#   34      0.6581     70.9714
#   35      0.0291     73.6839
#   36      0.5001     76.4353
#   37      0.0229     79.2303
#   38      0.3373     82.0742
#   39      0.0181     84.9726
#   40      0.2700     87.9321
#   41      0.0139     90.9599
#   42      0.2299     94.0644
#   43      0.0102     97.2554
#   44      0.1999    100.5443
#   45      0.0071    103.9448
#   46      0.1719    107.4736
#   47      0.0046    111.1515
#   48      0.1315    115.0047
#   49      0.0029    119.0675
#   50      0.1212    123.3858
#   51      0.0015    128.0245
#   52      0.1225    133.0793
#   53      0.0006    138.7041
#   54      0.0905    145.1751
#   55      0.0002    153.0977
#   56      0.0618    164.5679
   0    4.74880E+01    1.0000000000000000
   1    3.81848E+01    0.8040941549852040
   2    3.01486E+01    0.6348677650971616
   3    2.42469E+01    0.5105904281802147
   4    2.01771E+01    0.4248884312962843
   5    1.71211E+01    0.3605345211520811
   6    1.45932E+01    0.3073021909365874
   7    1.23404E+01    0.2598637459684757
   8    1.06443E+01    0.2241465772845993
   9    9.22685E+00    0.1942984434152160
  10    8.28086E+00    0.1743779215605951
  11    7.29087E+00    0.1535306593825668
  12    6.55097E+00    0.1379499166197033
  13    5.85371E+00    0.1232670592609518
  14    5.41096E+00    0.1139437392563977
  15    4.84995E+00    0.1021299364897099
  16    4.50973E+00    0.0949656291187205
  17    4.03990E+00    0.0850719090639045
  18    3.87072E+00    0.0815094696075902
  19    3.52716E+00    0.0742747813476002
  20    3.40912E+00    0.0717890468259370
  21    3.04756E+00    0.0641752633530812
  22    2.97436E+00    0.0626339732887177
  23    2.68535E+00    0.0565478964033821
  24    2.65372E+00    0.0558818971567178
  25    2.38885E+00    0.0503041697064637
  26    2.37075E+00    0.0499231311238743
  27    2.12923E+00    0.0448372653035951
  28    2.14497E+00    0.0451686021843869
  29    1.89573E+00    0.0399200846544947
  30    1.94672E+00    0.0409939521835229
  31    1.68340E+00    0.0354489493517046
  32    1.76402E+00    0.0371465838668339
  33    1.49452E+00    0.0314715816094997
  34    1.60838E+00    0.0338691637088513
  35    1.29926E+00    0.0273596628370905
  36    1.45316E+00    0.0306006157703664
  37    1.15077E+00    0.0242329175666558
  38    1.30957E+00    0.0275768760066775
  39    9.44694E-01    0.0198933126933269
  40    1.31015E+00    0.0275890477876524
  41    7.29908E-01    0.0153703549902045
  42    1.31234E+00    0.0276352069469648
  43    4.80780E-01    0.0101242359889999
  44    1.67524E+00    0.0352771005738318
