  # July 4, 2014 12:22:22
 # jmin,jmax    0   50
 # Eau     0.00200000
 # r0,ra,rb,rdel,tol,Bau,mu   3.5000  25.0000  25.0000   4.0000  1.0000E-03  3.0130E-07  6.8548E+03
 # parity bigJ  0  0        1  0        1  1        2  0        2  1        2  2        3  0        3  1        3  2        3  3
 # jmin,jmax,maxlamb are            0          50         100
 # j and jp are          24          49
 # lam  B-lambda(j,jp)  angle
#   25     15.1015      8.2132
#   26      0.9646     14.4654
#   27      6.7645     18.9099
#   28      0.3787     22.6409
#   29      4.6278     25.9709
#   30      0.1405     29.0409
#   31      3.4084     31.9289
#   32      0.0883     34.6831
#   33      2.6629     37.3359
#   34      0.0674     39.9102
#   35      2.1650     42.4231
#   36      0.0519     44.8877
#   37      1.7716     47.3145
#   38      0.0381     49.7118
#   39      1.3201     52.0869
#   40      0.0261     54.4457
#   41      0.8352     56.7935
#   42      0.0168     59.1350
#   43      0.4606     61.4744
#   44      0.0103     63.8157
#   45      0.2261     66.1624
#   46      0.0060     68.5182
#   47      0.0974     70.8865
#   48      0.0036     73.2707
#   49      0.0502     75.6742
#   50      0.0021     78.1004
#   51      0.0380     80.5532
#   52      0.0010     83.0361
#   53      0.0233     85.5534
#   54      0.0003     88.1094
#   55      0.0083     90.7089
#   56      0.0001     93.3572
#   57      0.0015     96.0602
#   58      0.0000     98.8246
#   59      0.0002    101.6582
#   60      0.0000    104.5698
#   61      0.0001    107.5701
#   62      0.0000    110.6714
#   63      0.0000    113.8892
#   64      0.0000    117.2424
#   65      0.0000    120.7550
#   66      0.0000    124.4581
#   67      0.0000    128.3939
#   68      0.0000    132.6213
#   69      0.0000    137.2278
#   70      0.0000    142.3535
#   71      0.0000    148.2502
#   72      0.0000    155.4693
#   73      0.0000    165.9180
   0    3.52500E+01    1.0000000000000000
   1    3.03583E+01    0.8612300084672356
   2    2.28303E+01    0.6476697418347974
   3    1.56020E+01    0.4426095529150434
   4    1.05512E+01    0.2993242308127230
   5    7.89540E+00    0.2239832677502753
   6    6.77445E+00    0.1921832664666189
   7    6.17878E+00    0.1752846800510589
   8    5.52162E+00    0.1566419185897386
   9    4.72047E+00    0.1339141323371105
  10    3.97299E+00    0.1127091687246548
  11    3.46049E+00    0.0981701500169946
  12    3.18347E+00    0.0903113573720836
  13    3.01223E+00    0.0854535046435153
  14    2.83707E+00    0.0804842165535730
  15    2.63865E+00    0.0748553156799326
  16    2.44420E+00    0.0693390645604016
  17    2.27126E+00    0.0644329345635465
  18    2.12339E+00    0.0602380833514899
  19    2.00376E+00    0.0568444114043654
  20    1.91027E+00    0.0541919911527858
  21    1.82934E+00    0.0518963468409770
  22    1.74786E+00    0.0495848730613295
  23    1.66606E+00    0.0472640617396039
  24    1.59309E+00    0.0451941745304627
  25    1.53424E+00    0.0435244996487819
  26    1.48682E+00    0.0421793136404065
  27    1.44543E+00    0.0410051947871708
  28    1.40701E+00    0.0399153514268370
  29    1.37089E+00    0.0388906298448684
  30    1.33714E+00    0.0379330321409994
  31    1.30527E+00    0.0370290994864273
  32    1.27481E+00    0.0361648197283138
  33    1.24513E+00    0.0353229002615549
  34    1.21610E+00    0.0344994352809221
  35    1.18761E+00    0.0336911859554360
  36    1.15986E+00    0.0329039077518345
  37    1.13270E+00    0.0321333396249119
  38    1.10669E+00    0.0313954646379132
  39    1.08066E+00    0.0306569412778706
  40    1.05430E+00    0.0299092653283102
  41    1.03010E+00    0.0292225964385242
  42    1.00216E+00    0.0284300850397009
  43    9.77552E-01    0.0277320134558548
  44    9.99978E-01    0.0283682001280208
  45    9.86506E-01    0.0279860290094411
  46    1.04425E+00    0.0296240295201361
  47    1.01375E+00    0.0287589426811613
  48    1.01791E+00    0.0288767999647149
