  # July 4, 2014 12:22:22
 # jmin,jmax    0   50
 # Eau     0.00200000
 # r0,ra,rb,rdel,tol,Bau,mu   3.5000  25.0000  25.0000   4.0000  1.0000E-03  3.0130E-07  6.8548E+03
 # parity bigJ  0  0        1  0        1  1        2  0        2  1        2  2        3  0        3  1        3  2        3  3
 # jmin,jmax,maxlamb are            0          50         100
 # j and jp are          24          26
 # lam  B-lambda(j,jp)  angle
#    2   2842.0790      3.1798
#    3     57.1290      6.3640
#    4    342.1413      9.0051
#    5     16.8577     11.4869
#    6    103.7799     13.8979
#    7      5.2556     16.2726
#    8     41.4995     18.6279
#    9      1.9938     20.9736
#   10     19.7819     23.3158
#   11      0.9117     25.6589
#   12     10.3432     28.0061
#   13      0.4983     30.3600
#   14      5.9943     32.7228
#   15      0.2899     35.0967
#   16      3.8024     37.4834
#   17      0.1760     39.8848
#   18      2.6257     42.3026
#   19      0.1210     44.7387
#   20      1.9663     47.1948
#   21      0.0927     49.6729
#   22      1.6085     52.1750
#   23      0.0748     54.7032
#   24      1.3121     57.2597
#   25      0.0621     59.8469
#   26      1.1341     62.4676
#   27      0.0521     65.1245
#   28      1.0005     67.8208
#   29      0.0431     70.5600
#   30      0.8415     73.3458
#   31      0.0352     76.1825
#   32      0.6999     79.0751
#   33      0.0284     82.0288
#   34      0.6416     85.0500
#   35      0.0222     88.1457
#   36      0.5373     91.3244
#   37      0.0170     94.5957
#   38      0.3721     97.9712
#   39      0.0131    101.4649
#   40      0.2883    105.0939
#   41      0.0097    108.8793
#   42      0.2581    112.8481
#   43      0.0069    117.0357
#   44      0.2322    121.4895
#   45      0.0045    126.2763
#   46      0.2286    131.4953
#   47      0.0027    137.3053
#   48      0.2237    143.9923
#   49      0.0013    152.1825
#   50      0.3290    164.0455
   0    4.29408E+02    1.0000000000000000
   1    4.12001E+02    0.9594631228650825
   2    3.96963E+02    0.9244442938976591
   3    3.81005E+02    0.8872808372637837
   4    3.66503E+02    0.8535082867348672
   5    3.50338E+02    0.8158625749987726
   6    3.34777E+02    0.7796252520627595
   7    3.18873E+02    0.7425877678760225
   8    3.04336E+02    0.7087353764375552
   9    2.89706E+02    0.6746641507604028
  10    2.76338E+02    0.6435330017976038
  11    2.63184E+02    0.6128994190726713
  12    2.51179E+02    0.5849430661012031
  13    2.39234E+02    0.5571245185274886
  14    2.28353E+02    0.5317863301970284
  15    2.17633E+02    0.5068213118637309
  16    2.07844E+02    0.4840246478306049
  17    1.98031E+02    0.4611725778589726
  18    1.89156E+02    0.4405036252158954
  19    1.80281E+02    0.4198364562691895
  20    1.72224E+02    0.4010735626263146
  21    1.64059E+02    0.3820579358313276
  22    1.56675E+02    0.3648635197762123
  23    1.49171E+02    0.3473881978033864
  24    1.42406E+02    0.3316333129629921
  25    1.35460E+02    0.3154573260776992
  26    1.29232E+02    0.3009545022255421
  27    1.22746E+02    0.2858488606918268
  28    1.16962E+02    0.2723802010977739
  29    1.10878E+02    0.2582112398584244
  30    1.05475E+02    0.2456299292804956
  31    9.97397E+01    0.2322727671729526
  32    9.47137E+01    0.2205683607916981
  33    8.91706E+01    0.2076595464428486
  34    8.45665E+01    0.1969374922367403
  35    7.91712E+01    0.1843730956311285
  36    7.49484E+01    0.1745390190038740
  37    6.97432E+01    0.1624172911357065
  38    6.58144E+01    0.1532678833480126
  39    6.07099E+01    0.1413805761274130
  40    5.71308E+01    0.1330455685282717
  41    5.20216E+01    0.1211474060588889
  42    4.87043E+01    0.1134219613734307
  43    4.34536E+01    0.1011942434840978
  44    4.03917E+01    0.0940638080973260
  45    3.47524E+01    0.0809310004005947
  46    3.20105E+01    0.0745456509054907
  47    2.51117E+01    0.0584798977528274
  48    2.39201E+01    0.0557049805571074
