  # July 4, 2014 12:22:22
 # jmin,jmax    0   50
 # Eau     0.00200000
 # r0,ra,rb,rdel,tol,Bau,mu   3.5000  25.0000  25.0000   4.0000  1.0000E-03  3.0130E-07  6.8548E+03
 # parity bigJ  0  0        1  0        1  1        2  0        2  1        2  2        3  0        3  1        3  2        3  3
 # jmin,jmax,maxlamb are            0          50         100
 # j and jp are          17          19
 # lam  B-lambda(j,jp)  angle
#    2   2184.8452      4.3858
#    3     25.0277      8.7829
#    4    263.5002     12.4342
#    5      7.1101     15.8708
#    6     79.2160     19.2158
#    7      1.8465     22.5182
#    8     31.6980     25.8028
#    9      0.6163     29.0845
#   10     15.0333     32.3732
#   11      0.2773     35.6768
#   12      7.9650     39.0015
#   13      0.1495     42.3532
#   14      4.6943     45.7372
#   15      0.0918     49.1590
#   16      3.0533     52.6242
#   17      0.0620     56.1385
#   18      2.2046     59.7084
#   19      0.0449     63.3408
#   20      1.6656     67.0436
#   21      0.0341     70.8254
#   22      1.3992     74.6966
#   23      0.0267     78.6687
#   24      1.1912     82.7557
#   25      0.0212     86.9742
#   26      1.0518     91.3443
#   27      0.0169     95.8912
#   28      0.9939    100.6466
#   29      0.0131    105.6521
#   30      0.9364    110.9635
#   31      0.0097    116.6592
#   32      0.8829    122.8556
#   33      0.0067    129.7396
#   34      0.9765    137.6468
#   35      0.0037    147.3143
#   36      1.6479    161.3014
   0    4.49812E+02    1.0000000000000000
   1    4.16929E+02    0.9268965518762171
   2    4.01060E+02    0.8916164628062315
   3    3.75778E+02    0.8354116012998108
   4    3.56300E+02    0.7921087989410247
   5    3.32225E+02    0.7385865355262911
   6    3.13346E+02    0.6966160295239148
   7    2.92151E+02    0.6494963138615558
   8    2.75224E+02    0.6118642793282317
   9    2.56819E+02    0.5709485249743764
  10    2.42052E+02    0.5381176337293407
  11    2.25969E+02    0.5023624543358185
  12    2.13053E+02    0.4736501633798255
  13    1.98973E+02    0.4423474185559017
  14    1.87605E+02    0.4170752269869833
  15    1.75099E+02    0.3892712771347719
  16    1.65077E+02    0.3669918282588221
  17    1.53890E+02    0.3421201758754688
  18    1.45001E+02    0.3223603804656637
  19    1.34803E+02    0.2996867529237790
  20    1.26865E+02    0.2820391917797378
  21    1.17486E+02    0.2611896872432735
  22    1.10363E+02    0.2453540149371064
  23    1.01633E+02    0.2259463788382677
  24    9.51317E+01    0.2114923046260303
  25    8.69385E+01    0.1932775779302416
  26    8.10698E+01    0.1802305605862142
  27    7.32210E+01    0.1627813051087670
  28    6.79030E+01    0.1509587084034780
  29    6.02147E+01    0.1338663670989076
  30    5.54522E+01    0.1232786362258595
  31    4.74656E+01    0.1055232566108875
  32    4.34489E+01    0.0965934713327773
  33    3.38491E+01    0.0752516525639144
  34    3.28538E+01    0.0730389598345929
