  # July 4, 2014 12:22:22
 # jmin,jmax    0   50
 # Eau     0.00200000
 # r0,ra,rb,rdel,tol,Bau,mu   3.5000  25.0000  25.0000   4.0000  1.0000E-03  3.0130E-07  6.8548E+03
 # parity bigJ  0  0        1  0        1  1        2  0        2  1        2  2        3  0        3  1        3  2        3  3
 # jmin,jmax,maxlamb are            0          50         100
 # j and jp are          25          27
 # lam  B-lambda(j,jp)  angle
#    2   2932.1738      3.0597
#    3     64.1263      6.1232
#    4    353.2044      8.6640
#    5     18.8045     11.0513
#    6    106.9110     13.3701
#    7      5.6900     15.6535
#    8     42.6151     17.9178
#    9      2.0046     20.1723
#   10     20.0479     22.4227
#   11      0.8542     24.6733
#   12     10.4607     26.9270
#   13      0.4553     29.1862
#   14      6.0949     31.4531
#   15      0.2829     33.7293
#   16      3.8980     36.0167
#   17      0.1896     38.3168
#   18      2.6844     40.6312
#   19      0.1382     42.9614
#   20      2.0064     45.3091
#   21      0.1061     47.6758
#   22      1.6322     50.0633
#   23      0.0848     52.4733
#   24      1.3312     54.9078
#   25      0.0698     57.3687
#   26      1.1520     59.8583
#   27      0.0581     62.3788
#   28      1.0133     64.9328
#   29      0.0483     67.5231
#   30      0.8454     70.1527
#   31      0.0399     72.8249
#   32      0.7024     75.5436
#   33      0.0324     78.3128
#   34      0.6424     81.1374
#   35      0.0254     84.0225
#   36      0.5248     86.9744
#   37      0.0196     90.0000
#   38      0.3581     93.1074
#   39      0.0152     96.3063
#   40      0.2789     99.6079
#   41      0.0115    103.0260
#   42      0.2451    106.5772
#   43      0.0083    110.2824
#   44      0.2159    114.1681
#   45      0.0056    118.2689
#   46      0.2019    122.6313
#   47      0.0035    127.3208
#   48      0.1744    132.4348
#   49      0.0020    138.1292
#   50      0.1744    144.6842
#   51      0.0009    152.7143
#   52      0.3096    164.3465
   0    4.26699E+02    1.0000000000000000
   1    4.10633E+02    0.9623492215784025
   2    3.96259E+02    0.9286626313085562
   3    3.80947E+02    0.8927782286968479
   4    3.67244E+02    0.8606627659077584
   5    3.51927E+02    0.8247673089131327
   6    3.37158E+02    0.7901537918587905
   7    3.21740E+02    0.7540223688835168
   8    3.07618E+02    0.7209262407394409
   9    2.93417E+02    0.6876431531183971
  10    2.80261E+02    0.6568124934903569
  11    2.67288E+02    0.6264091505456564
  12    2.55419E+02    0.5985939794897630
  13    2.43678E+02    0.5710769308658520
  14    2.32850E+02    0.5457016088487102
  15    2.22222E+02    0.5207942487515839
  16    2.12509E+02    0.4980298501074513
  17    2.02889E+02    0.4754841267642118
  18    1.93999E+02    0.4546513739566765
  19    1.85226E+02    0.4340907453609022
  20    1.77202E+02    0.4152869495534877
  21    1.69167E+02    0.3964554691748515
  22    1.61792E+02    0.3791706870868414
  23    1.54358E+02    0.3617488154954550
  24    1.47598E+02    0.3459057379135980
  25    1.40724E+02    0.3297962688031004
  26    1.34488E+02    0.3151822421624154
  27    1.28092E+02    0.3001923241564355
  28    1.22309E+02    0.2866409689697432
  29    1.16302E+02    0.2725625498197863
  30    1.10919E+02    0.2599461771365988
  31    1.05250E+02    0.2466616280312350
  32    1.00215E+02    0.2348602519812825
  33    9.48646E+01    0.2223222339294291
  34    9.01199E+01    0.2112025999973338
  35    8.49880E+01    0.1991757187615847
  36    8.06150E+01    0.1889272731868860
  37    7.55894E+01    0.1771494103380593
  38    7.16017E+01    0.1678038624450760
  39    6.66885E+01    0.1562893983938736
  40    6.29679E+01    0.1475699047207228
  41    5.81464E+01    0.1362702769608882
  42    5.47401E+01    0.1282874387343178
  43    4.98717E+01    0.1168781047336090
  44    4.67212E+01    0.1094945597327484
  45    4.17038E+01    0.0977358482479916
  46    3.88082E+01    0.0909497674903928
  47    3.34169E+01    0.0783150344732229
  48    3.08021E+01    0.0721869502694112
  49    2.41453E+01    0.0565862192023663
  50    2.29144E+01    0.0537014926855003
