  # July 4, 2014 12:22:22
 # jmin,jmax    0   50
 # Eau     0.00200000
 # r0,ra,rb,rdel,tol,Bau,mu   3.5000  25.0000  25.0000   4.0000  1.0000E-03  3.0130E-07  6.8548E+03
 # parity bigJ  0  0        1  0        1  1        2  0        2  1        2  2        3  0        3  1        3  2        3  3
 # jmin,jmax,maxlamb are            0          50         100
 # j and jp are          28          50
 # lam  B-lambda(j,jp)  angle
#   22     12.7244      7.0755
#   23      0.6304     12.4722
#   24      5.3533     16.3169
#   25      0.3581     19.5502
#   26      3.5571     22.4400
#   27      0.2270     25.1071
#   28      2.6439     27.6180
#   29      0.1567     30.0139
#   30      1.9739     32.3221
#   31      0.1239     34.5620
#   32      1.4198     36.7480
#   33      0.0985     38.8911
#   34      0.9874     40.9997
#   35      0.0788     43.0809
#   36      0.7520     45.1404
#   37      0.0634     47.1830
#   38      0.6404     49.2129
#   39      0.0503     51.2335
#   40      0.5320     53.2482
#   41      0.0384     55.2598
#   42      0.4098     57.2708
#   43      0.0276     59.2838
#   44      0.3103     61.3010
#   45      0.0180     63.3246
#   46      0.2272     65.3567
#   47      0.0099     67.3993
#   48      0.1348     69.4547
#   49      0.0043     71.5247
#   50      0.0548     73.6115
#   51      0.0016     75.7173
#   52      0.0157     77.8443
#   53      0.0006     79.9948
#   54      0.0056     82.1714
#   55      0.0002     84.3767
#   56      0.0026     86.6135
#   57      0.0000     88.8850
#   58      0.0008     91.1946
#   59      0.0000     93.5460
#   60      0.0001     95.9435
#   61      0.0000     98.3917
#   62      0.0000    100.8959
#   63      0.0000    103.4624
#   64      0.0000    106.0982
#   65      0.0000    108.8115
#   66      0.0000    111.6122
#   67      0.0000    114.5120
#   68      0.0000    117.5253
#   69      0.0000    120.6699
#   70      0.0000    123.9685
#   71      0.0000    127.4507
#   72      0.0000    131.1563
#   73      0.0000    135.1411
#   74      0.0000    139.4882
#   75      0.0000    144.3304
#   76      0.0000    149.9066
#   77      0.0000    156.7397
#   78      0.0000    166.6372
   0    2.39121E+01    1.0000000000000000
   1    2.09589E+01    0.8764981891169671
   2    1.64108E+01    0.6862974335220893
   3    1.20218E+01    0.5027506910821417
   4    8.86374E+00    0.3706799309738869
   5    6.97478E+00    0.2916838081146841
   6    5.81166E+00    0.2430424488995989
   7    4.90421E+00    0.2050930089672480
   8    4.13353E+00    0.1728635109974813
   9    3.57600E+00    0.1495476269262426
  10    3.25029E+00    0.1359264514762364
  11    3.05082E+00    0.1275848071668834
  12    2.85504E+00    0.1193970293239109
  13    2.62348E+00    0.1097135316047493
  14    2.38847E+00    0.0998854402890817
  15    2.18309E+00    0.0912964150989536
  16    2.00764E+00    0.0839589323273738
  17    1.85255E+00    0.0774731538670701
  18    1.72328E+00    0.0720672051367332
  19    1.62955E+00    0.0681476088920473
  20    1.56258E+00    0.0653467691977900
  21    1.49808E+00    0.0626493315370854
  22    1.42102E+00    0.0594269111486693
  23    1.33816E+00    0.0559614255743665
  24    1.26497E+00    0.0529008431437674
  25    1.20765E+00    0.0505037760528243
  26    1.16080E+00    0.0485442937409951
  27    1.11728E+00    0.0467242758469443
  28    1.07487E+00    0.0449509264400718
  29    1.03461E+00    0.0432672979113692
  30    9.97083E-01    0.0416978059898377
  31    9.61794E-01    0.0402220423471848
  32    9.28472E-01    0.0388285218682079
  33    8.97506E-01    0.0375335229822763
  34    8.69334E-01    0.0363553726202841
  35    8.43929E-01    0.0352929333528725
  36    8.20941E-01    0.0343316061137153
  37    7.99962E-01    0.0334542389437965
  38    7.80713E-01    0.0326492475097937
  39    7.62886E-01    0.0319037483085715
  40    7.46211E-01    0.0312063897012788
  41    7.30351E-01    0.0305431544434535
  42    7.15061E-01    0.0299036925974526
  43    7.00155E-01    0.0292803651141595
  44    6.85803E-01    0.0286801623135682
  45    6.71717E-01    0.0280910818759685
  46    6.58111E-01    0.0275220580451678
  47    6.45174E-01    0.0269810347397968
  48    6.28701E-01    0.0262921670826215
  49    6.06495E-01    0.0253634959010804
  50    5.86751E-01    0.0245377965836431
  51    5.48259E-01    0.0229280906113946
  52    4.89878E-01    0.0204866102280843
  53    4.50356E-01    0.0188337828137186
  54    4.64586E-01    0.0194288838961828
  55    3.35746E-01    0.0140408239232467
  56    6.48404E-01    0.0271161209981364
