  # July 4, 2014 12:22:22
 # jmin,jmax    0   50
 # Eau     0.00200000
 # r0,ra,rb,rdel,tol,Bau,mu   3.5000  25.0000  25.0000   4.0000  1.0000E-03  3.0130E-07  6.8548E+03
 # parity bigJ  0  0        1  0        1  1        2  0        2  1        2  2        3  0        3  1        3  2        3  3
 # jmin,jmax,maxlamb are            0          50         100
 # j and jp are          28          35
 # lam  B-lambda(j,jp)  angle
#    7    128.3146      4.7636
#    8      3.6990      8.6457
#    9     49.6536     11.5533
#   10      2.4296     14.1046
#   11     29.3197     16.4681
#   12      1.7583     18.7172
#   13     19.0522     20.8908
#   14      1.3346     23.0123
#   15     13.0214     25.0970
#   16      0.9896     27.1553
#   17      9.3738     29.1948
#   18      0.6887     31.2214
#   19      6.8161     33.2395
#   20      0.4987     35.2527
#   21      4.8712     37.2641
#   22      0.3740     39.2763
#   23      3.7003     41.2913
#   24      0.2791     43.3114
#   25      2.9047     45.3382
#   26      0.2142     47.3735
#   27      2.2348     49.4190
#   28      0.1664     51.4761
#   29      1.8262     53.5465
#   30      0.1281     55.6316
#   31      1.4993     57.7331
#   32      0.0991     59.8525
#   33      1.2047     61.9915
#   34      0.0770     64.1518
#   35      1.0010     66.3351
#   36      0.0591     68.5434
#   37      0.8523     70.7788
#   38      0.0445     73.0434
#   39      0.7385     75.3395
#   40      0.0320     77.6698
#   41      0.6103     80.0370
#   42      0.0213     82.4444
#   43      0.4331     84.8952
#   44      0.0136     87.3934
#   45      0.2746     89.9434
#   46      0.0088     92.5499
#   47      0.1855     95.2185
#   48      0.0055     97.9558
#   49      0.1245    100.7691
#   50      0.0032    103.6673
#   51      0.0775    106.6608
#   52      0.0018    109.7620
#   53      0.0566    112.9863
#   54      0.0008    116.3528
#   55      0.0390    119.8858
#   56      0.0002    123.6169
#   57      0.0168    127.5887
#   58      0.0000    131.8613
#   59      0.0037    136.5237
#   60      0.0000    141.7186
#   61      0.0004    147.7024
#   62      0.0000    155.0369
#   63      0.0002    165.6648
   0    1.05487E+02    1.0000000000000000
   1    9.19276E+01    0.8714606306538458
   2    7.43930E+01    0.7052351491134554
   3    6.02570E+01    0.5712278757725900
   4    5.00358E+01    0.4743323234256057
   5    4.19836E+01    0.3979989391673466
   6    3.53174E+01    0.3348041457339239
   7    3.00604E+01    0.2849683715763837
   8    2.61915E+01    0.2482915921862043
   9    2.32343E+01    0.2202581269339370
  10    2.07593E+01    0.1967947378446373
  11    1.87253E+01    0.1775128929028867
  12    1.71246E+01    0.1623387228670013
  13    1.58123E+01    0.1498980787566235
  14    1.46470E+01    0.1388511945574127
  15    1.35781E+01    0.1287186393684300
  16    1.26549E+01    0.1199666661304859
  17    1.18965E+01    0.1127773423009970
  18    1.12285E+01    0.1064443896131651
  19    1.06069E+01    0.1005521689207637
  20    1.00647E+01    0.0954122110211335
  21    9.60259E+00    0.0910311935273759
  22    9.18771E+00    0.0870981733206077
  23    8.79803E+00    0.0834040859736220
  24    8.44213E+00    0.0800301884891924
  25    8.09122E+00    0.0767036271657019
  26    7.76237E+00    0.0735861486048167
  27    7.43114E+00    0.0704461324612305
  28    7.16922E+00    0.0679631347273606
  29    6.90485E+00    0.0654570294809636
  30    6.72507E+00    0.0637526982476077
  31    6.48931E+00    0.0615177528688129
  32    6.33682E+00    0.0600721871586712
  33    6.10197E+00    0.0578457595299200
  34    5.97114E+00    0.0566055405552472
  35    5.75668E+00    0.0545725025152906
  36    5.66435E+00    0.0536972467258566
  37    5.45527E+00    0.0517151979246545
  38    5.41007E+00    0.0512867149076902
  39    5.18088E+00    0.0491139614797342
  40    5.18245E+00    0.0491289314333664
  41    4.93639E+00    0.0467963075659329
  42    4.98437E+00    0.0472510730101424
  43    4.69871E+00    0.0445430594202611
  44    4.84930E+00    0.0459706558279337
  45    4.42138E+00    0.0419140487204609
  46    4.75524E+00    0.0450789722111935
  47    4.17634E+00    0.0395911360738495
  48    4.70712E+00    0.0446228054422235
  49    3.92999E+00    0.0372557870026823
  50    4.54334E+00    0.0430702464936001
  51    3.59033E+00    0.0340358455015420
  52    4.47845E+00    0.0424550668807449
  53    3.26130E+00    0.0309166535339203
  54    4.63788E+00    0.0439663997642456
  55    2.76985E+00    0.0262578023082846
  56    5.56030E+00    0.0527108217394515
