  # July 4, 2014 12:22:22
 # jmin,jmax    0   50
 # Eau     0.00200000
 # r0,ra,rb,rdel,tol,Bau,mu   3.5000  25.0000  25.0000   4.0000  1.0000E-03  3.0130E-07  6.8548E+03
 # parity bigJ  0  0        1  0        1  1        2  0        2  1        2  2        3  0        3  1        3  2        3  3
 # jmin,jmax,maxlamb are            0          50         100
 # j and jp are          19          27
 # lam  B-lambda(j,jp)  angle
#    8     97.0254      6.9912
#    9      0.9684     12.6376
#   10     26.8855     16.8403
#   11      0.4853     20.5129
#   12     11.9896     23.9070
#   13      0.2699     27.1330
#   14      6.4788     30.2506
#   15      0.1693     33.2962
#   16      3.9951     36.2938
#   17      0.1152     39.2606
#   18      2.7279     42.2096
#   19      0.0860     45.1508
#   20      1.9931     48.0926
#   21      0.0674     51.0421
#   22      1.6081     54.0058
#   23      0.0544     56.9896
#   24      1.3003     59.9991
#   25      0.0449     63.0398
#   26      1.1158     66.1175
#   27      0.0373     69.2380
#   28      0.9893     72.4074
#   29      0.0308     75.6325
#   30      0.8429     78.9206
#   31      0.0250     82.2800
#   32      0.7039     85.7201
#   33      0.0201     89.2517
#   34      0.6480     92.8875
#   35      0.0155     96.6426
#   36      0.5667    100.5353
#   37      0.0116    104.5884
#   38      0.4095    108.8305
#   39      0.0086    113.2992
#   40      0.3228    118.0448
#   41      0.0061    123.1380
#   42      0.3111    128.6835
#   43      0.0039    134.8492
#   44      0.3235    141.9372
#   45      0.0020    150.6092
#   46      0.5280    163.1597
   0    7.94726E+01    1.0000000000000000
   1    6.28061E+01    0.7902862772655583
   2    5.40594E+01    0.6802268736937948
   3    4.56793E+01    0.5747802903402677
   4    4.08724E+01    0.5142957461295644
   5    3.46466E+01    0.4359562195622112
   6    3.06479E+01    0.3856417093208145
   7    2.62689E+01    0.3305401272576865
   8    2.35191E+01    0.2959402847974771
   9    2.02913E+01    0.2553240932714987
  10    1.85169E+01    0.2329976945270804
  11    1.62296E+01    0.2042168008048790
  12    1.49278E+01    0.1878354409547179
  13    1.32276E+01    0.1664417762480591
  14    1.24358E+01    0.1564788131972829
  15    1.10685E+01    0.1392748228807839
  16    1.04837E+01    0.1319165851046953
  17    9.40116E+00    0.1182944319743236
  18    9.04310E+00    0.1137888967961317
  19    8.10827E+00    0.1020260348330882
  20    7.85354E+00    0.0988207115260754
  21    7.02545E+00    0.0884009927960557
  22    6.85284E+00    0.0862289516593761
  23    6.11049E+00    0.0768880711716911
  24    6.03433E+00    0.0759297506398665
  25    5.30019E+00    0.0666920603879630
  26    5.35167E+00    0.0673398225676341
  27    4.52176E+00    0.0568971379550611
  28    4.73084E+00    0.0595279991957193
  29    3.84192E+00    0.0483426811305384
  30    4.16162E+00    0.0523654413736159
  31    3.24785E+00    0.0408675992376599
  32    3.64487E+00    0.0458632292318463
  33    2.61289E+00    0.0328778710329235
  34    3.21299E+00    0.0404289325151650
  35    2.02499E+00    0.0254804141443506
  36    2.87230E+00    0.0361420206002943
  37    1.39902E+00    0.0176037750589362
  38    2.95363E+00    0.0371654663531579
