  # July 4, 2014 12:22:22
 # jmin,jmax    0   50
 # Eau     0.00200000
 # r0,ra,rb,rdel,tol,Bau,mu   3.5000  25.0000  25.0000   4.0000  1.0000E-03  3.0130E-07  6.8548E+03
 # parity bigJ  0  0        1  0        1  1        2  0        2  1        2  2        3  0        3  1        3  2        3  3
 # jmin,jmax,maxlamb are            0          50         100
 # j and jp are          18          47
 # lam  B-lambda(j,jp)  angle
#   29      9.4100     10.3819
#   30      0.1432     18.2910
#   31      4.0472     23.9101
#   32      0.0673     28.6276
#   33      2.7284     32.8406
#   34      0.0498     36.7288
#   35      2.0163     40.3920
#   36      0.0345     43.8923
#   37      1.4569     47.2718
#   38      0.0230     50.5607
#   39      1.0259     53.7819
#   40      0.0142     56.9533
#   41      0.7053     60.0896
#   42      0.0084     63.2031
#   43      0.4823     66.3045
#   44      0.0054     69.4035
#   45      0.3262     72.5092
#   46      0.0037     75.6299
#   47      0.1970     78.7742
#   48      0.0024     81.9504
#   49      0.1080     85.1673
#   50      0.0014     88.4343
#   51      0.0678     91.7615
#   52      0.0008     95.1601
#   53      0.0436     98.6430
#   54      0.0003    102.2251
#   55      0.0197    105.9244
#   56      0.0001    109.7625
#   57      0.0051    113.7668
#   58      0.0000    117.9723
#   59      0.0008    122.4263
#   60      0.0000    127.1944
#   61      0.0001    132.3740
#   62      0.0000    138.1207
#   63      0.0001    144.7136
#   64      0.0000    152.7649
#   65      0.0002    164.3944
   0    2.57159E+01    1.0000000000000000
   1    2.09245E+01    0.8136791884808610
   2    1.45234E+01    0.5647631826873272
   3    9.54255E+00    0.3710756974488305
   4    6.71990E+00    0.2613128090439387
   5    5.30908E+00    0.2064512523821934
   6    4.53847E+00    0.1764850743980496
   7    4.00352E+00    0.1556825384830261
   8    3.55179E+00    0.1381165517677157
   9    3.16933E+00    0.1232438158341611
  10    2.85055E+00    0.1108476453418904
  11    2.55684E+00    0.0994265144427933
  12    2.29464E+00    0.0892303025122945
  13    2.09725E+00    0.0815544355011353
  14    1.95173E+00    0.0758958942506052
  15    1.81902E+00    0.0707352818088956
  16    1.69413E+00    0.0658787322897071
  17    1.58994E+00    0.0618269701380727
  18    1.50454E+00    0.0585062287726730
  19    1.42559E+00    0.0554360516545150
  20    1.35010E+00    0.0525005368428576
  21    1.28092E+00    0.0498105321741629
  22    1.22043E+00    0.0474580850810866
  23    1.16702E+00    0.0453812090914862
  24    1.11986E+00    0.0435474494700333
  25    1.07768E+00    0.0419072215577028
  26    1.04102E+00    0.0404815229133340
  27    1.00587E+00    0.0391147127718988
  28    9.79854E-01    0.0381030386711446
  29    9.38864E-01    0.0365090728568098
  30    9.30209E-01    0.0361725108773804
  31    8.59609E-01    0.0334271472734127
  32    8.77444E-01    0.0341206571498737
  33    7.82103E-01    0.0304131922115954
  34    8.13289E-01    0.0316259018650127
  35    6.27970E-01    0.0244194995101995
  36    8.78868E-01    0.0341760386860357
