  # July 4, 2014 12:22:22
 # jmin,jmax    0   50
 # Eau     0.00200000
 # r0,ra,rb,rdel,tol,Bau,mu   3.5000  25.0000  25.0000   4.0000  1.0000E-03  3.0130E-07  6.8548E+03
 # parity bigJ  0  0        1  0        1  1        2  0        2  1        2  2        3  0        3  1        3  2        3  3
 # jmin,jmax,maxlamb are            0          50         100
 # j and jp are          26          36
 # lam  B-lambda(j,jp)  angle
#   10     68.7059      5.8215
#   11      5.1551     10.4331
#   12     21.6618     13.8184
#   13      2.2487     16.7416
#   14     10.7370     19.4150
#   15      1.3572     21.9326
#   16      6.2245     24.3453
#   17      0.8985     26.6840
#   18      3.9177     28.9689
#   19      0.6460     31.2144
#   20      2.8039     33.4309
#   21      0.4768     35.6262
#   22      2.1444     37.8067
#   23      0.3417     39.9774
#   24      1.6932     42.1425
#   25      0.2235     44.3056
#   26      1.4367     46.4698
#   27      0.1373     48.6379
#   28      1.1965     50.8126
#   29      0.0919     52.9961
#   30      0.9089     55.1908
#   31      0.0686     57.3989
#   32      0.7523     59.6225
#   33      0.0521     61.8639
#   34      0.6628     64.1251
#   35      0.0406     66.4086
#   36      0.4768     68.7165
#   37      0.0328     71.0514
#   38      0.3268     73.4159
#   39      0.0261     75.8128
#   40      0.2668     78.2451
#   41      0.0199     80.7161
#   42      0.2252     83.2295
#   43      0.0147     85.7893
#   44      0.1950     88.4000
#   45      0.0103     91.0666
#   46      0.1526     93.7949
#   47      0.0069     96.5915
#   48      0.1124     99.4640
#   49      0.0043    102.4215
#   50      0.1048    105.4744
#   51      0.0023    108.6357
#   52      0.0854    111.9208
#   53      0.0009    115.3492
#   54      0.0430    118.9455
#   55      0.0003    122.7419
#   56      0.0152    126.7816
#   57      0.0001    131.1257
#   58      0.0063    135.8643
#   59      0.0000    141.1424
#   60      0.0024    147.2200
#   61      0.0000    154.6673
#   62      0.0006    165.4560
   0    6.05240E+01    1.0000000000000000
   1    5.31122E+01    0.8775394013018283
   2    4.41364E+01    0.7292376811403175
   3    3.71275E+01    0.6134351612693558
   4    3.17685E+01    0.5248904022620131
   5    2.74924E+01    0.4542404595487811
   6    2.40909E+01    0.3980393770064281
   7    2.11244E+01    0.3490259003894703
   8    1.84647E+01    0.3050810674600397
   9    1.62300E+01    0.2681583780448726
  10    1.43605E+01    0.2372694260880024
  11    1.27838E+01    0.2112185744693359
  12    1.14740E+01    0.1895785540133378
  13    1.03258E+01    0.1706069366806999
  14    9.34270E+00    0.1543635863243195
  15    8.56926E+00    0.1415846268421655
  16    7.91874E+00    0.1308363478330547
  17    7.29123E+00    0.1204684578032929
  18    6.72396E+00    0.1110957499333019
  19    6.23691E+00    0.1030485260203386
  20    5.83280E+00    0.0963717215731727
  21    5.47660E+00    0.0904865201076490
  22    5.15209E+00    0.0851247605081619
  23    4.81459E+00    0.0795484818034222
  24    4.51102E+00    0.0745328060890372
  25    4.24904E+00    0.0702042181106878
  26    4.05066E+00    0.0669264814117040
  27    3.84851E+00    0.0635865476575489
  28    3.67478E+00    0.0607160932465023
  29    3.46957E+00    0.0573256278248682
  30    3.33421E+00    0.0550890484138153
  31    3.12950E+00    0.0517067315917877
  32    3.04274E+00    0.0502733011785252
  33    2.81967E+00    0.0465877250959602
  34    2.76885E+00    0.0457479136039550
  35    2.54352E+00    0.0420249661084292
  36    2.50833E+00    0.0414435666602225
  37    2.29564E+00    0.0379293774054212
  38    2.27827E+00    0.0376424177096796
  39    2.05270E+00    0.0339155633634874
  40    2.07837E+00    0.0343396632049947
  41    1.83510E+00    0.0303201485151175
  42    1.89022E+00    0.0312309598311868
  43    1.60454E+00    0.0265107377122324
  44    1.72598E+00    0.0285172190924058
  45    1.41122E+00    0.0233167351854679
  46    1.49238E+00    0.0246576815621279
  47    1.14016E+00    0.0188382202464183
  48    1.43000E+00    0.0236270192298647
  49    8.70159E-01    0.0143770957928281
  50    1.37125E+00    0.0226563645170247
  51    5.28402E-01    0.0087304524262143
  52    1.75097E+00    0.0289302205160425
