  # July 4, 2014 12:22:22
 # jmin,jmax    0   50
 # Eau     0.00200000
 # r0,ra,rb,rdel,tol,Bau,mu   3.5000  25.0000  25.0000   4.0000  1.0000E-03  3.0130E-07  6.8548E+03
 # parity bigJ  0  0        1  0        1  1        2  0        2  1        2  2        3  0        3  1        3  2        3  3
 # jmin,jmax,maxlamb are            0          50         100
 # j and jp are          21          40
 # lam  B-lambda(j,jp)  angle
#   19     24.5944      8.4495
#   20      0.9322     14.9461
#   21      9.7827     19.6024
#   22      0.5782     23.5418
#   23      5.7909     27.0832
#   24      0.4322     30.3705
#   25      4.0877     33.4826
#   26      0.3343     36.4685
#   27      2.9959     39.3610
#   28      0.2441     42.1835
#   29      2.2790     44.9534
#   30      0.1674     47.6842
#   31      1.7643     50.3867
#   32      0.1130     53.0699
#   33      1.3680     55.7414
#   34      0.0759     58.4079
#   35      1.0972     61.0754
#   36      0.0499     63.7492
#   37      0.9114     66.4347
#   38      0.0338     69.1368
#   39      0.7691     71.8604
#   40      0.0237     74.6104
#   41      0.6133     77.3921
#   42      0.0158     80.2106
#   43      0.4263     83.0717
#   44      0.0102     85.9815
#   45      0.2729     88.9468
#   46      0.0066     91.9751
#   47      0.1856     95.0750
#   48      0.0041     98.2565
#   49      0.1226    101.5309
#   50      0.0024    104.9122
#   51      0.0763    108.4169
#   52      0.0013    112.0656
#   53      0.0563    115.8844
#   54      0.0006    119.9070
#   55      0.0389    124.1790
#   56      0.0002    128.7640
#   57      0.0170    133.7567
#   58      0.0000    139.3084
#   59      0.0040    145.6912
#   60      0.0000    153.5009
#   61      0.0008    164.8008
   0    4.88771E+01    1.0000000000000000
   1    3.92026E+01    0.8020658672343309
   2    2.78719E+01    0.5702445363332534
   3    2.01525E+01    0.4123096881202080
   4    1.57023E+01    0.3212610097218358
   5    1.28108E+01    0.2621022458055976
   6    1.05571E+01    0.2159924468584790
   7    8.83879E+00    0.1808371087845433
   8    7.70928E+00    0.1577279552375211
   9    6.88175E+00    0.1407970969447593
  10    6.12299E+00    0.1252732287535600
  11    5.43163E+00    0.1111282894435661
  12    4.86901E+00    0.0996174564380947
  13    4.45526E+00    0.0911524081219963
  14    4.13382E+00    0.0845758068360481
  15    3.81924E+00    0.0781397069239169
  16    3.54018E+00    0.0724302018860147
  17    3.31789E+00    0.0678822550630548
  18    3.14113E+00    0.0642659573160747
  19    2.95866E+00    0.0605327392364904
  20    2.80966E+00    0.0574842433204024
  21    2.65265E+00    0.0542718048849707
  22    2.53549E+00    0.0518748426028678
  23    2.37529E+00    0.0485971893627685
  24    2.27494E+00    0.0465440741561051
  25    2.11350E+00    0.0432410928034865
  26    2.04202E+00    0.0417786386014611
  27    1.88758E+00    0.0386190203826147
  28    1.84191E+00    0.0376845663335898
  29    1.69760E+00    0.0347319340945492
  30    1.67451E+00    0.0342595802935990
  31    1.53302E+00    0.0313647659341683
  32    1.55042E+00    0.0317208902798539
  33    1.38585E+00    0.0283536945231144
  34    1.45831E+00    0.0298362467531918
  35    1.25368E+00    0.0256496291473280
  36    1.37388E+00    0.0281088531052705
  37    1.10678E+00    0.0226440967699819
  38    1.36563E+00    0.0279401864258411
  39    9.00243E-01    0.0184185071555571
  40    1.49180E+00    0.0305215207443053
  41    6.59384E-01    0.0134906488039758
  42    1.86094E+00    0.0380739705398351
