  # July 4, 2014 12:22:22
 # jmin,jmax    0   50
 # Eau     0.00200000
 # r0,ra,rb,rdel,tol,Bau,mu   3.5000  25.0000  25.0000   4.0000  1.0000E-03  3.0130E-07  6.8548E+03
 # parity bigJ  0  0        1  0        1  1        2  0        2  1        2  2        3  0        3  1        3  2        3  3
 # jmin,jmax,maxlamb are            0          50         100
 # j and jp are          23          47
 # lam  B-lambda(j,jp)  angle
#   24      8.7640      8.3874
#   25      0.2928     14.7824
#   26      3.8412     19.3343
#   27      0.1576     23.1603
#   28      2.5176     26.5792
#   29      0.1189     29.7349
#   30      1.9035     32.7068
#   31      0.0945     35.5442
#   32      1.5500     38.2801
#   33      0.0715     40.9379
#   34      1.1526     43.5351
#   35      0.0514     46.0852
#   36      0.7514     48.5987
#   37      0.0366     51.0846
#   38      0.4844     53.5500
#   39      0.0268     56.0014
#   40      0.3365     58.4443
#   41      0.0198     60.8835
#   42      0.2450     63.3236
#   43      0.0135     65.7689
#   44      0.1815     68.2234
#   45      0.0083     70.6909
#   46      0.1554     73.1754
#   47      0.0050     75.6807
#   48      0.1417     78.2107
#   49      0.0029     80.7697
#   50      0.0967     83.3619
#   51      0.0013     85.9920
#   52      0.0419     88.6650
#   53      0.0005     91.3864
#   54      0.0133     94.1625
#   55      0.0002     97.0001
#   56      0.0048     99.9072
#   57      0.0001    102.8930
#   58      0.0016    105.9683
#   59      0.0000    109.1460
#   60      0.0003    112.4417
#   61      0.0000    115.8747
#   62      0.0001    119.4697
#   63      0.0000    123.2586
#   64      0.0001    127.2843
#   65      0.0000    131.6069
#   66      0.0000    136.3160
#   67      0.0000    141.5545
#   68      0.0000    147.5794
#   69      0.0000    154.9538
#   70      0.0000    165.6256
   0    1.98792E+01    1.0000000000000000
   1    1.67583E+01    0.8430056398415793
   2    1.23486E+01    0.6211800230593171
   3    8.57879E+00    0.4315463965718755
   4    6.11771E+00    0.3077444176968176
   5    4.63052E+00    0.2329332264389395
   6    3.71563E+00    0.1869106808904065
   7    3.22342E+00    0.1621503622894509
   8    3.00187E+00    0.1510057183766582
   9    2.80697E+00    0.1412012504942731
  10    2.50895E+00    0.1262099963554728
  11    2.17854E+00    0.1095890805699033
  12    1.92252E+00    0.0967101991513107
  13    1.74498E+00    0.0877790133710865
  14    1.60085E+00    0.0805290406397787
  15    1.48679E+00    0.0747911725307003
  16    1.41913E+00    0.0713878856686774
  17    1.37472E+00    0.0691539296928672
  18    1.31272E+00    0.0660346581280712
  19    1.22876E+00    0.0618113346823575
  20    1.14947E+00    0.0578227999716569
  21    1.08871E+00    0.0547665593898273
  22    1.03901E+00    0.0522663094611343
  23    9.92458E-01    0.0499244699977770
  24    9.50380E-01    0.0478078135318022
  25    9.14055E-01    0.0459804996586266
  26    8.80978E-01    0.0443166070294806
  27    8.47997E-01    0.0426575120561544
  28    8.15492E-01    0.0410223878862899
  29    7.84336E-01    0.0394551575244578
  30    7.55444E-01    0.0380017549758647
  31    7.28057E-01    0.0366240925086155
  32    7.02004E-01    0.0353135239165773
  33    6.77429E-01    0.0340772784278869
  34    6.54674E-01    0.0329326325470960
  35    6.34068E-01    0.0318960610922203
  36    6.19666E-01    0.0311715841662261
  37    6.05268E-01    0.0304473209065081
  38    6.03893E-01    0.0303781743918927
  39    6.02586E-01    0.0303124276531935
  40    6.01397E-01    0.0302525729639348
  41    5.89029E-01    0.0296304592627223
  42    6.25676E-01    0.0314739008187155
  43    4.98649E-01    0.0250839854652485
  44    5.91352E-01    0.0297473162664335
  45    3.57261E-01    0.0179715938066109
  46    5.31518E-01    0.0267373875966038
