  # July 4, 2014 12:22:22
 # jmin,jmax    0   50
 # Eau     0.00200000
 # r0,ra,rb,rdel,tol,Bau,mu   3.5000  25.0000  25.0000   4.0000  1.0000E-03  3.0130E-07  6.8548E+03
 # parity bigJ  0  0        1  0        1  1        2  0        2  1        2  2        3  0        3  1        3  2        3  3
 # jmin,jmax,maxlamb are            0          50         100
 # j and jp are          29          36
 # lam  B-lambda(j,jp)  angle
#    7    130.0327      4.6177
#    8      3.4929      8.3803
#    9     50.6533     11.1980
#   10      2.4074     13.6701
#   11     29.8814     15.9599
#   12      1.7729     18.1385
#   13     19.6178     20.2435
#   14      1.3277     22.2976
#   15     13.7376     24.3156
#   16      1.0399     26.3075
#   17      9.8894     28.2808
#   18      0.8704     30.2409
#   19      7.1597     32.1922
#   20      0.7237     34.1382
#   21      5.0877     36.0816
#   22      0.5320     38.0250
#   23      3.7332     39.9704
#   24      0.3502     41.9197
#   25      2.8935     43.8746
#   26      0.2409     45.8367
#   27      2.2833     47.8074
#   28      0.1871     49.7883
#   29      1.8713     51.7806
#   30      0.1470     53.7857
#   31      1.5086     55.8051
#   32      0.1118     57.8401
#   33      1.2089     59.8922
#   34      0.0853     61.9628
#   35      1.0032     64.0535
#   36      0.0651     66.1659
#   37      0.8493     68.3017
#   38      0.0484     70.4628
#   39      0.7338     72.6511
#   40      0.0338     74.8687
#   41      0.5991     77.1179
#   42      0.0223     79.4012
#   43      0.4148     81.7214
#   44      0.0145     84.0816
#   45      0.2614     86.4850
#   46      0.0095     88.9355
#   47      0.1779     91.4372
#   48      0.0059     93.9951
#   49      0.1161     96.6145
#   50      0.0035     99.3019
#   51      0.0717    102.0644
#   52      0.0019    104.9109
#   53      0.0527    107.8515
#   54      0.0009    110.8985
#   55      0.0339    114.0670
#   56      0.0002    117.3759
#   57      0.0129    120.8489
#   58      0.0000    124.5172
#   59      0.0024    128.4230
#   60      0.0000    132.6251
#   61      0.0003    137.2113
#   62      0.0000    142.3220
#   63      0.0001    148.2096
#   64      0.0000    155.4272
#   65      0.0002    165.8865
   0    1.04782E+02    1.0000000000000000
   1    9.22476E+01    0.8803803083364800
   2    7.52803E+01    0.7184501599875855
   3    6.09293E+01    0.5814891357740979
   4    5.04271E+01    0.4812593143802931
   5    4.22822E+01    0.4035274309167886
   6    3.55902E+01    0.3396606931250590
   7    3.02608E+01    0.2887988889773311
   8    2.63055E+01    0.2510508807998601
   9    2.34005E+01    0.2233269290930261
  10    2.10578E+01    0.2009686542959512
  11    1.90712E+01    0.1820088329796472
  12    1.74548E+01    0.1665827156371828
  13    1.61284E+01    0.1539241289455088
  14    1.49502E+01    0.1426797644239156
  15    1.38504E+01    0.1321833890639445
  16    1.28494E+01    0.1226305452927794
  17    1.20105E+01    0.1146242823506308
  18    1.13366E+01    0.1081928672284930
  19    1.07501E+01    0.1025954787848636
  20    1.02095E+01    0.0974358118756479
  21    9.73219E+00    0.0928807914924054
  22    9.31179E+00    0.0888685775544417
  23    8.91453E+00    0.0850773208634662
  24    8.53717E+00    0.0814758910883039
  25    8.19487E+00    0.0782090755655342
  26    7.88408E+00    0.0752429725814294
  27    7.59033E+00    0.0724395192741005
  28    7.31467E+00    0.0698087505639747
  29    7.06107E+00    0.0673885171033283
  30    6.84115E+00    0.0652895964099334
  31    6.62882E+00    0.0632631868219253
  32    6.44765E+00    0.0615342028369868
  33    6.23885E+00    0.0595415010406592
  34    6.08299E+00    0.0580540441781892
  35    5.87750E+00    0.0560928872637810
  36    5.75956E+00    0.0549672671892747
  37    5.57493E+00    0.0532052888192886
  38    5.48680E+00    0.0523642154835929
  39    5.31402E+00    0.0507151927776756
  40    5.25404E+00    0.0501428217994497
  41    5.06435E+00    0.0483324478487261
  42    5.05162E+00    0.0482110047643874
  43    4.83569E+00    0.0461501595606885
  44    4.86304E+00    0.0464111786974021
  45    4.62235E+00    0.0441141255110660
  46    4.70333E+00    0.0448870307354598
  47    4.35424E+00    0.0415553797521476
  48    4.60854E+00    0.0439823567507087
  49    4.09442E+00    0.0390758135467913
  50    4.55084E+00    0.0434316622617200
  51    3.83579E+00    0.0366074997167160
  52    4.44599E+00    0.0424310336992814
  53    3.57793E+00    0.0341465298637903
  54    4.42453E+00    0.0422262163027366
  55    3.31053E+00    0.0315946171590917
  56    4.65905E+00    0.0444644206448385
  57    2.83915E+00    0.0270959255324041
  58    5.38416E+00    0.0513846121201649
