  # July 4, 2014 12:22:22
 # jmin,jmax    0   50
 # Eau     0.00200000
 # r0,ra,rb,rdel,tol,Bau,mu   3.5000  25.0000  25.0000   4.0000  1.0000E-03  3.0130E-07  6.8548E+03
 # parity bigJ  0  0        1  0        1  1        2  0        2  1        2  2        3  0        3  1        3  2        3  3
 # jmin,jmax,maxlamb are            0          50         100
 # j and jp are          19          49
 # lam  B-lambda(j,jp)  angle
#   30      4.5153     10.0765
#   31      0.1653     17.7404
#   32      1.9333     23.1787
#   33      0.0410     27.7385
#   34      1.1756     31.8053
#   35      0.0247     35.5538
#   36      0.8226     39.0806
#   37      0.0206     42.4461
#   38      0.6581     45.6908
#   39      0.0168     48.8441
#   40      0.5164     51.9277
#   41      0.0127     54.9590
#   42      0.3632     57.9517
#   43      0.0091     60.9175
#   44      0.2380     63.8663
#   45      0.0063     66.8070
#   46      0.1645     69.7476
#   47      0.0040     72.6958
#   48      0.1163     75.6586
#   49      0.0021     78.6434
#   50      0.0652     81.6572
#   51      0.0008     84.7076
#   52      0.0241     87.8024
#   53      0.0003     90.9501
#   54      0.0068     94.1603
#   55      0.0001     97.4436
#   56      0.0029    100.8120
#   57      0.0000    104.2801
#   58      0.0013    107.8649
#   59      0.0000    111.5874
#   60      0.0004    115.4741
#   61      0.0000    119.5593
#   62      0.0001    123.8886
#   63      0.0000    128.5263
#   64      0.0000    133.5670
#   65      0.0000    139.1626
#   66      0.0000    145.5855
#   67      0.0000    153.4326
#   68      0.0000    164.7709
   0    1.19852E+01    1.0000000000000000
   1    9.90189E+00    0.8261763100474665
   2    7.01833E+00    0.5855835302353741
   3    4.70121E+00    0.3922516168969010
   4    3.40691E+00    0.2842598629542044
   5    2.78641E+00    0.2324877009999889
   6    2.38374E+00    0.1988904056710625
   7    2.02605E+00    0.1690463425023470
   8    1.72586E+00    0.1439994548005994
   9    1.48792E+00    0.1241462662826467
  10    1.28862E+00    0.1075172247918208
  11    1.13311E+00    0.0945421424297937
  12    1.04040E+00    0.0868073394979413
  13    9.91107E-01    0.0826942715838169
  14    9.41159E-01    0.0785267581551707
  15    8.74347E-01    0.0729522007514707
  16    8.08063E-01    0.0674217025040101
  17    7.56571E-01    0.0631254070588626
  18    7.16037E-01    0.0597434029373728
  19    6.78615E-01    0.0566210719219007
  20    6.43259E-01    0.0536711108674572
  21    6.11279E-01    0.0510028474790742
  22    5.82204E-01    0.0485769250730045
  23    5.54232E-01    0.0462430095219045
  24    5.26728E-01    0.0439482391089013
  25    4.99577E-01    0.0416827923700573
  26    4.73078E-01    0.0394718192409678
  27    4.47250E-01    0.0373168259069484
  28    4.22664E-01    0.0352655342586264
  29    3.99279E-01    0.0333143692389693
  30    3.79723E-01    0.0316826473876414
  31    3.60880E-01    0.0301104595316557
  32    3.51067E-01    0.0292917144300612
  33    3.39818E-01    0.0283531619508272
  34    3.36049E-01    0.0280386579067185
  35    3.38531E-01    0.0282457396117069
  36    3.50658E-01    0.0292576007205549
  37    2.74586E-01    0.0229104044118784
  38    3.84628E-01    0.0320918980885794
