  # Jan. 9, 2015 13:29:48
 # jmin,jmax    0   40
 # Eau     0.00200000
 # r0,ra,rb,rdel,tol,Bau,mu   5.0000  25.0000  25.0000   4.0000  1.0000E-03  3.0130E-07  4.4300E+04
 # parity bigJ  0  0        1  0        1  1        2  0        2  1        2  2        3  0        3  1        3  2        3  3
 # jmin,jmax,maxlamb are            0          40          80
 # j and jp are          15          16
 # lam  B-lambda(j,jp)  angle
#    1  35628.3576      3.5833
#    2    590.3830      8.0209
#    3   2090.3101     11.9093
#    4    107.8316     15.6729
#    5    434.5030     19.3952
#    6     45.0567     23.1080
#    7    173.1596     26.8275
#    8     30.6606     30.5644
#    9     94.1391     34.3269
#   10     21.3909     38.1224
#   11     62.3126     41.9575
#   12     19.3887     45.8392
#   13     46.3155     49.7748
#   14     16.6114     53.7721
#   15     37.1125     57.8396
#   16     14.9839     61.9872
#   17     29.1508     66.2259
#   18     14.0987     70.5684
#   19     25.7845     75.0297
#   20     11.9984     79.6279
#   21     21.9376     84.3848
#   22     11.2944     89.3272
#   23     20.2484     94.4896
#   24     10.3370     99.9164
#   25     18.7527    105.6678
#   26     10.6895    111.8279
#   27     18.8917    118.5220
#   28     10.9964    125.9504
#   29     21.0081    134.4742
#   30     11.4236    144.8856
#   31     30.9761    159.9404
   0    4.82993E+03    1.0000000000000000
   1    4.19269E+03    0.8680639952043785
   2    4.09693E+03    0.8482382719421047
   3    3.89874E+03    0.8072043751494293
   4    3.79669E+03    0.7860762001823635
   5    3.64078E+03    0.7537960046409700
   6    3.52853E+03    0.7305554024456731
   7    3.37821E+03    0.6994315684238389
   8    3.26204E+03    0.6753802440910741
   9    3.11808E+03    0.6455751904102789
  10    3.00150E+03    0.6214374339167857
  11    2.86374E+03    0.5929160645001617
  12    2.74930E+03    0.5692213609717913
  13    2.61719E+03    0.5418688867303630
  14    2.50581E+03    0.5188078545095888
  15    2.37847E+03    0.4924429478951303
  16    2.26907E+03    0.4697938245779892
  17    2.14666E+03    0.4444494476417840
  18    2.04238E+03    0.4228599799625781
  19    1.92199E+03    0.3979332378415590
  20    1.82019E+03    0.3768567354177975
  21    1.70225E+03    0.3524379833750373
  22    1.60226E+03    0.3317354515640030
  23    1.48048E+03    0.3065210743389571
  24    1.37770E+03    0.2852427090787675
  25    1.24965E+03    0.2587297902562101
  26    1.14140E+03    0.2363190794042019
  27    9.95190E+02    0.2060464595846198
  28    8.74890E+02    0.1811392306056640
  29    6.85261E+02    0.1418780289540931
  30    5.42338E+02    0.1122868377898941
