  # Jan. 9, 2015 13:29:48
 # jmin,jmax    0   40
 # Eau     0.00200000
 # r0,ra,rb,rdel,tol,Bau,mu   5.0000  25.0000  25.0000   4.0000  1.0000E-03  3.0130E-07  4.4300E+04
 # parity bigJ  0  0        1  0        1  1        2  0        2  1        2  2        3  0        3  1        3  2        3  3
 # jmin,jmax,maxlamb are            0          40          80
 # j and jp are          19          21
 # lam  B-lambda(j,jp)  angle
#    2  23277.4167      3.9569
#    3    591.3874      7.9221
#    4   1479.0864     11.2134
#    5    164.1890     14.3091
#    6    373.9949     17.3201
#    7     82.0584     20.2899
#    8    173.9209     23.2404
#    9     54.9847     26.1846
#   10    107.1233     29.1308
#   11     42.7024     32.0853
#   12     73.2654     35.0533
#   13     32.7177     38.0390
#   14     54.7325     41.0463
#   15     26.4340     44.0792
#   16     39.8219     47.1413
#   17     21.5049     50.2365
#   18     30.3486     53.3689
#   19     18.4025     56.5428
#   20     24.5449     59.7628
#   21     15.3623     63.0340
#   22     21.0463     66.3621
#   23     13.7681     69.7533
#   24     18.4706     73.2149
#   25     12.4634     76.7549
#   26     16.0920     80.3828
#   27     12.0320     84.1096
#   28     16.2021     87.9484
#   29     10.4066     91.9148
#   30     15.2098     96.0279
#   31      9.2810    100.3114
#   32     13.9683    104.7955
#   33      8.5709    109.5196
#   34     13.8762    114.5367
#   35      8.3297    119.9212
#   36     14.1121    125.7837
#   37      8.1594    132.3016
#   38     15.4565    139.7937
#   39      8.7898    148.9596
#   40     25.3062    162.2264
   0    4.29716E+03    1.0000000000000000
   1    3.66139E+03    0.8520490471007049
   2    3.53696E+03    0.8230934697199508
   3    3.33184E+03    0.7753602578970027
   4    3.23091E+03    0.7518712194671875
   5    3.07773E+03    0.7162243382254981
   6    2.98033E+03    0.6935578333992056
   7    2.85067E+03    0.6633855551411058
   8    2.75357E+03    0.6407880303034338
   9    2.62849E+03    0.6116813898107708
  10    2.52573E+03    0.5877674623384733
  11    2.40456E+03    0.5595701043200897
  12    2.30121E+03    0.5355190177641393
  13    2.18171E+03    0.5077108401811831
  14    2.07977E+03    0.4839880193775143
  15    1.96574E+03    0.4574515095333071
  16    1.86643E+03    0.4343410966442047
  17    1.75593E+03    0.4086261254318580
  18    1.66013E+03    0.3863313139996354
  19    1.55475E+03    0.3618096142769635
  20    1.46301E+03    0.3404590205722390
  21    1.36181E+03    0.3169101768698937
  22    1.27452E+03    0.2965957298015641
  23    1.17946E+03    0.2744755014972262
  24    1.09627E+03    0.2551161536184480
  25    1.00460E+03    0.2337823474515432
  26    9.26572E+02    0.2156243873099343
  27    8.39414E+02    0.1953417679070083
  28    7.65484E+02    0.1781373274212500
  29    6.84631E+02    0.1593218439437618
  30    6.14609E+02    0.1430268932561989
  31    5.38342E+02    0.1252786941103863
  32    4.73592E+02    0.1102105097848865
  33    4.00220E+02    0.0931360753010020
  34    3.41400E+02    0.0794480034795114
  35    2.72602E+02    0.0634377964695484
  36    2.23494E+02    0.0520098136883071
  37    1.52690E+02    0.0355327884429646
  38    1.28636E+02    0.0299350629031792
