  # Jan. 9, 2015 13:29:48
 # jmin,jmax    0   40
 # Eau     0.00200000
 # r0,ra,rb,rdel,tol,Bau,mu   5.0000  25.0000  25.0000   4.0000  1.0000E-03  3.0130E-07  4.4300E+04
 # parity bigJ  0  0        1  0        1  1        2  0        2  1        2  2        3  0        3  1        3  2        3  3
 # jmin,jmax,maxlamb are            0          40          80
 # j and jp are          28          29
 # lam  B-lambda(j,jp)  angle
#    1  57745.7522      1.9761
#    2   2397.7506      4.4201
#    3   3146.1668      6.5582
#    4    383.6232      8.6226
#    5    673.1610     10.6580
#    6    131.1929     12.6803
#    7    264.2338     14.6969
#    8     74.8538     16.7118
#    9    140.3560     18.7276
#   10     56.1310     20.7463
#   11     92.1553     22.7693
#   12     44.1736     24.7979
#   13     68.1404     26.8330
#   14     34.6417     28.8757
#   15     53.6894     30.9270
#   16     28.3772     32.9878
#   17     42.2916     35.0590
#   18     23.3058     37.1417
#   19     33.4277     39.2367
#   20     19.3441     41.3452
#   21     27.2908     43.4680
#   22     16.5127     45.6064
#   23     23.4843     47.7614
#   24     15.3303     49.9344
#   25     20.7320     52.1265
#   26     14.1183     54.3391
#   27     18.4825     56.5738
#   28     13.3657     58.8320
#   29     16.0399     61.1155
#   30     12.1671     63.4260
#   31     14.1149     65.7656
#   32     11.5076     68.1364
#   33     12.3206     70.5408
#   34     10.9280     72.9813
#   35     11.1292     75.4609
#   36     10.6377     77.9826
#   37     10.2868     80.5499
#   38      9.9258     83.1669
#   39      9.4943     85.8381
#   40      8.9063     88.5683
#   41      8.2337     91.3635
#   42      8.2865     94.2303
#   43      8.7983     97.1765
#   44      7.5806    100.2111
#   45      8.0958    103.3451
#   46      7.5569    106.5914
#   47      7.8428    109.9661
#   48      6.3258    113.4890
#   49      7.5018    117.1854
#   50      5.4784    121.0884
#   51      6.5636    125.2425
#   52      4.8220    129.7103
#   53      6.8784    134.5847
#   54      4.3473    140.0148
#   55      8.2370    146.2684
#   56      3.3467    153.9322
#   57     18.7197    165.0368
   0    4.68339E+03    1.0000000000000000
   1    4.13615E+03    0.8831522366148462
   2    4.00125E+03    0.8543488721250789
   3    3.84344E+03    0.8206521482553003
   4    3.78991E+03    0.8092233898871297
   5    3.67176E+03    0.7839948460858727
   6    3.62207E+03    0.7733860956510168
   7    3.52657E+03    0.7529939359467793
   8    3.47119E+03    0.7411698607079058
   9    3.38692E+03    0.7231773045223812
  10    3.33092E+03    0.7112190281026104
  11    3.24976E+03    0.6938897893687268
  12    3.18995E+03    0.6811201493355831
  13    3.11272E+03    0.6646290289188828
  14    3.04823E+03    0.6508602336522985
  15    2.97152E+03    0.6344803039175366
  16    2.90638E+03    0.6205707217663303
  17    2.83320E+03    0.6049452960001451
  18    2.76862E+03    0.5911572352534589
  19    2.69673E+03    0.5758068311684595
  20    2.63242E+03    0.5620755052793422
  21    2.56300E+03    0.5472521168361443
  22    2.49886E+03    0.5335571042951679
  23    2.43082E+03    0.5190289563244295
  24    2.36755E+03    0.5055208623650219
  25    2.30189E+03    0.4915009826464106
  26    2.23938E+03    0.4781529338293193
  27    2.17447E+03    0.4642937366266540
  28    2.11425E+03    0.4514354278593585
  29    2.05010E+03    0.4377391921955389
  30    1.99023E+03    0.4249552696754287
  31    1.92840E+03    0.4117523603550778
  32    1.86836E+03    0.3989321223361747
  33    1.80760E+03    0.3859600731202578
  34    1.74902E+03    0.3734522233251176
  35    1.68851E+03    0.3605313334802629
  36    1.63019E+03    0.3480786194633474
  37    1.57070E+03    0.3353760062701075
  38    1.51253E+03    0.3229561226106167
  39    1.45386E+03    0.3104285536802460
  40    1.39536E+03    0.2979384450225783
  41    1.33654E+03    0.2853788910105539
  42    1.27753E+03    0.2727783003665555
  43    1.21841E+03    0.2601558286574012
  44    1.15843E+03    0.2473486402548033
  45    1.09773E+03    0.2343885069373440
  46    1.03675E+03    0.2213669166820167
  47    9.73128E+02    0.2077826786523228
  48    9.10855E+02    0.1944862534696253
  49    8.42547E+02    0.1799010094342172
  50    7.77974E+02    0.1661134405974804
  51    7.02403E+02    0.1499773987183059
  52    6.34263E+02    0.1354280494883788
  53    5.48806E+02    0.1171813281557090
  54    4.75473E+02    0.1015232315492392
  55    3.66649E+02    0.0782871090409519
  56    2.80993E+02    0.0599977907938297
