  # Jan. 9, 2015 13:29:48
 # jmin,jmax    0   40
 # Eau     0.00200000
 # r0,ra,rb,rdel,tol,Bau,mu   5.0000  25.0000  25.0000   4.0000  1.0000E-03  3.0130E-07  4.4300E+04
 # parity bigJ  0  0        1  0        1  1        2  0        2  1        2  2        3  0        3  1        3  2        3  3
 # jmin,jmax,maxlamb are            0          40          80
 # j and jp are          28          30
 # lam  B-lambda(j,jp)  angle
#    2  27505.7193      2.7482
#    3   1189.0844      5.4991
#    4   1833.4252      7.7802
#    5    321.8681      9.9228
#    6    486.0472     12.0031
#    7    156.5028     14.0507
#    8    224.6861     16.0801
#    9     90.6415     18.0995
#   10    134.6075     20.1139
#   11     61.5142     22.1268
#   12     90.3651     24.1407
#   13     46.5231     26.1577
#   14     65.0928     28.1794
#   15     37.4758     30.2071
#   16     48.4357     32.2422
#   17     31.3761     34.2858
#   18     37.0680     36.3391
#   19     25.7793     38.4031
#   20     29.4748     40.4789
#   21     21.9012     42.5676
#   22     24.7274     44.6704
#   23     19.4833     46.7883
#   24     22.0901     48.9226
#   25     18.5780     51.0745
#   26     19.1615     53.2454
#   27     17.3132     55.4365
#   28     17.8685     57.6494
#   29     16.0365     59.8857
#   30     16.8525     62.1470
#   31     13.8364     64.4353
#   32     14.9976     66.7523
#   33     12.2975     69.1004
#   34     14.6406     71.4818
#   35     11.8296     73.8991
#   36     14.3036     76.3551
#   37     11.6437     78.8531
#   38     14.6965     81.3964
#   39     12.3573     83.9891
#   40     13.8258     86.6355
#   41     11.2445     89.3407
#   42     12.5623     92.1103
#   43      9.2333     94.9511
#   44     11.6055     97.8708
#   45     10.5054    100.8783
#   46     11.7241    103.9844
#   47     10.2022    107.2021
#   48     11.5974    110.5472
#   49     10.3048    114.0394
#   50      8.9899    117.7039
#   51      7.2214    121.5734
#   52      8.0751    125.6921
#   53      8.0877    130.1222
#   54      8.3899    134.9557
#   55      6.1803    140.3405
#   56      8.7849    146.5423
#   57      3.4901    154.1430
#   58     18.3281    165.1565
   0    3.97378E+03    1.0000000000000000
   1    3.29845E+03    0.8300555914167186
   2    3.13620E+03    0.7892231836616026
   3    3.00090E+03    0.7551769182702928
   4    2.93046E+03    0.7374492602527909
   5    2.80076E+03    0.7048104052773081
   6    2.73993E+03    0.6895033156687294
   7    2.63671E+03    0.6635265776138886
   8    2.57484E+03    0.6479583653598915
   9    2.48297E+03    0.6248397496346183
  10    2.42292E+03    0.6097266554615759
  11    2.33582E+03    0.5878095069628693
  12    2.27645E+03    0.5728690237746468
  13    2.20138E+03    0.5539776294957195
  14    2.13232E+03    0.5365980621555690
  15    2.05621E+03    0.5174438069514709
  16    1.99491E+03    0.5020186476604912
  17    1.92147E+03    0.4835385896352243
  18    1.85832E+03    0.4676465150984348
  19    1.78932E+03    0.4502823026444466
  20    1.72588E+03    0.4343170001526254
  21    1.66137E+03    0.4180838451502012
  22    1.59769E+03    0.4020586405571544
  23    1.53476E+03    0.3862229918017965
  24    1.47486E+03    0.3711489763490731
  25    1.41199E+03    0.3553276572548483
  26    1.35330E+03    0.3405579738599803
  27    1.29484E+03    0.3258465148802421
  28    1.23725E+03    0.3113539119694734
  29    1.18073E+03    0.2971299316123436
  30    1.12533E+03    0.2831896752406169
  31    1.06953E+03    0.2691482802162313
  32    1.01751E+03    0.2560552558067422
  33    9.64385E+02    0.2426872480663148
  34    9.13333E+02    0.2298401999193367
  35    8.62164E+02    0.2169634372709665
  36    8.14248E+02    0.2049053467059666
  37    7.64058E+02    0.1922751770410779
  38    7.19108E+02    0.1809633885806303
  39    6.70961E+02    0.1688471535878305
  40    6.27866E+02    0.1580024247404416
  41    5.81872E+02    0.1464281282806683
  42    5.40847E+02    0.1361041073451550
  43    4.96740E+02    0.1250045278322937
  44    4.58633E+02    0.1154148918880721
  45    4.16315E+02    0.1047655939350713
  46    3.80092E+02    0.0956501260528188
  47    3.39645E+02    0.0854716208113054
  48    3.05705E+02    0.0769305895798884
  49    2.67813E+02    0.0673951478968407
  50    2.34644E+02    0.0590480895477887
  51    2.00235E+02    0.0503891818331022
  52    1.69726E+02    0.0427114419939616
  53    1.36536E+02    0.0343592545561116
  54    1.10944E+02    0.0279190997962451
  55    7.91037E+01    0.0199064370322113
  56    6.93637E+01    0.0174553617585147
