  # Jan. 9, 2015 13:29:48
 # jmin,jmax    0   40
 # Eau     0.00200000
 # r0,ra,rb,rdel,tol,Bau,mu   5.0000  25.0000  25.0000   4.0000  1.0000E-03  3.0130E-07  4.4300E+04
 # parity bigJ  0  0        1  0        1  1        2  0        2  1        2  2        3  0        3  1        3  2        3  3
 # jmin,jmax,maxlamb are            0          40          80
 # j and jp are           7           8
 # lam  B-lambda(j,jp)  angle
#    1  18665.7802      7.1808
#    2     95.6431     16.1247
#    3   1153.3078     24.0185
#    4     35.6029     31.7426
#    5    248.3183     39.4952
#    6     20.1098     47.3758
#    7    109.2405     55.4624
#    8     15.3142     63.8349
#    9     66.8995     72.5891
#   10     14.5949     81.8516
#   11     49.1935     91.8049
#   12     13.1953    102.7372
#   13     45.9653    115.1640
#   14     14.1710    130.2174
#   15     61.2140    151.8745
   0    4.78120E+03    1.0000000000000000
   1    4.06054E+03    0.8492729047489461
   2    3.88848E+03    0.8132864556998258
   3    3.54376E+03    0.7411874293314121
   4    3.32850E+03    0.6961644620215741
   5    3.02549E+03    0.6327888249201268
   6    2.80996E+03    0.5877113220932351
   7    2.53074E+03    0.5293101066983462
   8    2.33031E+03    0.4873897988865986
   9    2.07166E+03    0.4332934737692954
  10    1.88318E+03    0.3938721358314963
  11    1.62769E+03    0.3404347162626632
  12    1.44185E+03    0.3015672262559921
  13    1.13526E+03    0.2374424690773407
  14    9.24918E+02    0.1934490139445048
