  # Jan. 9, 2015 13:29:48
 # jmin,jmax    0   40
 # Eau     0.00200000
 # r0,ra,rb,rdel,tol,Bau,mu   5.0000  25.0000  25.0000   4.0000  1.0000E-03  3.0130E-07  4.4300E+04
 # parity bigJ  0  0        1  0        1  1        2  0        2  1        2  2        3  0        3  1        3  2        3  3
 # jmin,jmax,maxlamb are            0          40          80
 # j and jp are          17          19
 # lam  B-lambda(j,jp)  angle
#    2  21735.5972      4.3858
#    3    478.0770      8.7829
#    4   1391.1090     12.4342
#    5    146.0918     15.8708
#    6    339.0002     19.2158
#    7     75.6963     22.5182
#    8    166.3395     25.8028
#    9     46.1291     29.0845
#   10    101.8518     32.3732
#   11     38.1397     35.6768
#   12     69.8966     39.0015
#   13     32.4568     42.3532
#   14     49.7603     45.7372
#   15     26.1931     49.1590
#   16     37.4567     52.6242
#   17     20.9695     56.1385
#   18     29.3892     59.7084
#   19     17.5441     63.3408
#   20     24.1683     67.0436
#   21     13.8316     70.8254
#   22     20.4343     74.6966
#   23     11.9470     78.6687
#   24     17.3342     82.7557
#   25     11.1654     86.9742
#   26     16.3968     91.3443
#   27     10.2542     95.8912
#   28     15.7228    100.6466
#   29      9.5547    105.6521
#   30     15.7338    110.9635
#   31      8.9077    116.6592
#   32     16.4117    122.8556
#   33      9.9136    129.7396
#   34     18.4933    137.6468
#   35      9.9203    147.3143
#   36     28.1427    161.3014
   0    4.37666E+03    1.0000000000000000
   1    3.72530E+03    0.8511729361375556
   2    3.60252E+03    0.8231202065321779
   3    3.37712E+03    0.7716191868557780
   4    3.26023E+03    0.7449125282925076
   5    3.10095E+03    0.7085187428733541
   6    2.99311E+03    0.6838782863036131
   7    2.84848E+03    0.6508325022994443
   8    2.73608E+03    0.6251514919815719
   9    2.59353E+03    0.5925824327815538
  10    2.47854E+03    0.5663072504272589
  11    2.34105E+03    0.5348926741350383
  12    2.22439E+03    0.5082389294678974
  13    2.09181E+03    0.4779470097327216
  14    1.97822E+03    0.4519926555358580
  15    1.85170E+03    0.4230852163076693
  16    1.74267E+03    0.3981725176029403
  17    1.62095E+03    0.3703617607493018
  18    1.51690E+03    0.3465876803211195
  19    1.40116E+03    0.3201438698339470
  20    1.30207E+03    0.2975019139406526
  21    1.19319E+03    0.2726243556596121
  22    1.10005E+03    0.2513442396598161
  23    9.97390E+02    0.2278882031910879
  24    9.10003E+02    0.2079214588155214
  25    8.14522E+02    0.1861055621134905
  26    7.32167E+02    0.1672887829229809
  27    6.40764E+02    0.1464046164330622
  28    5.64730E+02    0.1290319834101227
  29    4.76869E+02    0.1089572402369546
  30    4.06481E+02    0.0928746192343724
  31    3.21758E+02    0.0735166639438301
  32    2.60389E+02    0.0594947667594061
  33    1.79192E+02    0.0409424800795263
  34    1.48695E+02    0.0339744194385885
