  # Jan. 9, 2015 13:29:48
 # jmin,jmax    0   40
 # Eau     0.00200000
 # r0,ra,rb,rdel,tol,Bau,mu   5.0000  25.0000  25.0000   4.0000  1.0000E-03  3.0130E-07  4.4300E+04
 # parity bigJ  0  0        1  0        1  1        2  0        2  1        2  2        3  0        3  1        3  2        3  3
 # jmin,jmax,maxlamb are            0          40          80
 # j and jp are          19          20
 # lam  B-lambda(j,jp)  angle
#    1  43180.1862      2.8660
#    2   1036.5416      6.4128
#    3   2467.6896      9.5180
#    4    178.2777     12.5198
#    5    512.9493     15.4839
#    6     67.1769     18.4344
#    7    204.3230     21.3829
#    8     40.3298     24.3367
#    9    114.7616     27.3007
#   10     36.7948     30.2790
#   11     77.6241     33.2751
#   12     32.0214     36.2923
#   13     55.8305     39.3337
#   14     23.6334     42.4027
#   15     40.6039     45.5026
#   16     19.0304     48.6371
#   17     31.4902     51.8098
#   18     15.3697     55.0251
#   19     26.6944     58.2875
#   20     14.1310     61.6019
#   21     22.7257     64.9740
#   22     13.2390     68.4101
#   23     19.6529     71.9174
#   24     12.0209     75.5040
#   25     16.4047     79.1794
#   26     10.5348     82.9547
#   27     13.8418     86.8432
#   28      9.6695     90.8605
#   29     13.4197     95.0261
#   30      8.9124     99.3639
#   31     12.8019    103.9043
#   32      8.8518    108.6872
#   33     12.9036    113.7661
#   34      8.4557    119.2165
#   35     13.3164    125.1501
#   36      9.0282    131.7462
#   37     16.3708    139.3276
#   38      9.9972    148.6019
#   39     26.8441    162.0247
   0    4.81298E+03    1.0000000000000000
   1    4.20097E+03    0.8728424288960538
   2    4.11282E+03    0.8545266144448013
   3    3.91413E+03    0.8132464317123780
   4    3.83260E+03    0.7963067021007301
   5    3.69831E+03    0.7684049593664922
   6    3.61249E+03    0.7505726930485367
   7    3.49225E+03    0.7255900526659197
   8    3.40355E+03    0.7071607200396043
   9    3.29101E+03    0.6837781530640733
  10    3.20072E+03    0.6650193052121036
  11    3.08702E+03    0.6413944445223996
  12    2.99155E+03    0.6215590544878629
  13    2.88086E+03    0.5985601359397588
  14    2.78631E+03    0.5789171880579729
  15    2.68070E+03    0.5569725780353882
  16    2.58795E+03    0.5377026807173914
  17    2.48649E+03    0.5166223792477194
  18    2.39722E+03    0.4980739627072521
  19    2.29884E+03    0.4776335023366606
  20    2.21098E+03    0.4593781451165597
  21    2.11581E+03    0.4396050408385987
  22    2.02960E+03    0.4216941006950561
  23    1.93596E+03    0.4022380711101713
  24    1.85160E+03    0.3847099946471682
  25    1.75946E+03    0.3655662794081649
  26    1.67613E+03    0.3482530565506578
  27    1.58523E+03    0.3293666163178450
  28    1.50116E+03    0.3118995432706941
  29    1.40849E+03    0.2926445869499673
  30    1.32361E+03    0.2750094049054628
  31    1.22736E+03    0.2550115560625120
  32    1.14015E+03    0.2368917407610814
  33    1.03405E+03    0.2148467836383545
  34    9.40480E+02    0.1954051807048172
  35    8.17948E+02    0.1699464591281418
  36    7.12590E+02    0.1480560251599434
  37    5.56734E+02    0.1156735432667834
  38    4.36233E+02    0.0906369370721286
