  # Jan. 9, 2015 13:29:48
 # jmin,jmax    0   40
 # Eau     0.00200000
 # r0,ra,rb,rdel,tol,Bau,mu   5.0000  25.0000  25.0000   4.0000  1.0000E-03  3.0130E-07  4.4300E+04
 # parity bigJ  0  0        1  0        1  1        2  0        2  1        2  2        3  0        3  1        3  2        3  3
 # jmin,jmax,maxlamb are            0          40          80
 # j and jp are          21          23
 # lam  B-lambda(j,jp)  angle
#    2  24617.4193      3.6045
#    3    695.8073      7.2153
#    4   1554.3740     10.2114
#    5    196.8025     13.0282
#    6    402.4730     15.7663
#    7     92.2781     18.4651
#    8    193.5354     21.1443
#    9     64.9582     23.8151
#   10    118.4016     26.4850
#   11     45.7296     29.1592
#   12     76.7358     31.8420
#   13     36.6256     34.5366
#   14     54.4106     37.2463
#   15     30.2345     39.9738
#   16     41.6386     42.7219
#   17     24.8801     45.4934
#   18     32.7398     48.2910
#   19     21.0950     51.1176
#   20     26.3271     53.9763
#   21     18.3391     56.8703
#   22     21.9447     59.8032
#   23     16.4457     62.7788
#   24     19.8818     65.8013
#   25     14.8696     68.8754
#   26     17.5577     72.0064
#   27     12.8832     75.2000
#   28     15.3209     78.4630
#   29     11.7401     81.8031
#   30     14.0677     85.2293
#   31     10.4150     88.7519
#   32     12.8703     92.3833
#   33      9.5292     96.1384
#   34     11.8207    100.0355
#   35      8.3361    104.0970
#   36     11.1776    108.3519
#   37      8.1497    112.8375
#   38     11.3029    117.6046
#   39      8.1513    122.7242
#   40     12.5478    128.3018
#   41      7.3554    134.5066
#   42     12.7216    141.6431
#   43      7.7310    150.3784
#   44     23.1462    163.0260
   0    4.22278E+03    1.0000000000000000
   1    3.60187E+03    0.8529614399685891
   2    3.46903E+03    0.8215037865630641
   3    3.26904E+03    0.7741435881758197
   4    3.17887E+03    0.7527896560462995
   5    3.03809E+03    0.7194512958892559
   6    2.95023E+03    0.6986456363057617
   7    2.82549E+03    0.6691055244267640
   8    2.73945E+03    0.6487307119988975
   9    2.62669E+03    0.6220287291787250
  10    2.53576E+03    0.6004960090064693
  11    2.42948E+03    0.5753273652060821
  12    2.33665E+03    0.5533440903407568
  13    2.23207E+03    0.5285771451849375
  14    2.14138E+03    0.5071021838630090
  15    2.03952E+03    0.4829811583215096
  16    1.94996E+03    0.4617723511296746
  17    1.84971E+03    0.4380304113423721
  18    1.76168E+03    0.4171854054565277
  19    1.66543E+03    0.3943915977389764
  20    1.58013E+03    0.3741921728221286
  21    1.48855E+03    0.3525040054026186
  22    1.40571E+03    0.3328878051228840
  23    1.31852E+03    0.3122391140050206
  24    1.24016E+03    0.2936829844412567
  25    1.15707E+03    0.2740064321224170
  26    1.08197E+03    0.2562214834328429
  27    1.00274E+03    0.2374598108595785
  28    9.31128E+02    0.2205010668750620
  29    8.55344E+02    0.2025547055857762
  30    7.87254E+02    0.1864301365751195
  31    7.14921E+02    0.1693010901873944
  32    6.50143E+02    0.1539608212707557
  33    5.81659E+02    0.1377431276017315
  34    5.21157E+02    0.1234155797895282
  35    4.56226E+02    0.1080392048691105
  36    4.00601E+02    0.0948666794007161
  37    3.39806E+02    0.0804698011418892
  38    2.88734E+02    0.0683751979689323
  39    2.30721E+02    0.0546372874325214
  40    1.88735E+02    0.0446944438587404
  41    1.32927E+02    0.0314786146980335
  42    1.13029E+02    0.0267663852033966
