  # Jan. 9, 2015 13:29:48
 # jmin,jmax    0   40
 # Eau     0.00200000
 # r0,ra,rb,rdel,tol,Bau,mu   5.0000  25.0000  25.0000   4.0000  1.0000E-03  3.0130E-07  4.4300E+04
 # parity bigJ  0  0        1  0        1  1        2  0        2  1        2  2        3  0        3  1        3  2        3  3
 # jmin,jmax,maxlamb are            0          40          80
 # j and jp are          29          31
 # lam  B-lambda(j,jp)  angle
#    2  27846.6014      2.6580
#    3   1318.6680      5.3185
#    4   1835.9604      7.5244
#    5    337.2525      9.5962
#    6    483.8965     11.6076
#    7    159.1423     13.5872
#    8    233.4670     15.5489
#    9    101.0669     17.5005
#   10    141.5199     19.4470
#   11     65.8784     21.3916
#   12     96.1638     23.3368
#   13     49.7443     25.2844
#   14     71.6688     27.2360
#   15     41.5303     29.1929
#   16     54.9296     31.1563
#   17     35.1828     33.1271
#   18     42.8774     35.1065
#   19     30.0303     37.0954
#   20     35.9482     39.0948
#   21     25.8608     41.1056
#   22     31.3122     43.1289
#   23     24.8158     45.1656
#   24     28.2330     47.2169
#   25     22.4877     49.2837
#   26     24.0390     51.3671
#   27     18.9302     53.4685
#   28     20.1850     55.5891
#   29     16.5914     57.7301
#   30     16.5157     59.8931
#   31     13.8921     62.0795
#   32     13.7937     64.2910
#   33     12.2263     66.5294
#   34     13.0988     68.7966
#   35     12.3890     71.0947
#   36     12.5845     73.4260
#   37     11.6910     75.7930
#   38     12.0327     78.1985
#   39     11.4856     80.6456
#   40     11.3091     83.1377
#   41      9.9209     85.6787
#   42     10.5375     88.2728
#   43      8.6803     90.9252
#   44     10.3118     93.6413
#   45      9.6700     96.4276
#   46     10.5003     99.2919
#   47      9.1906    102.2429
#   48      9.8911    105.2912
#   49      7.2696    108.4495
#   50      8.2161    111.7336
#   51      6.9039    115.1626
#   52      7.7321    118.7614
#   53      6.5339    122.5621
#   54      7.9677    126.6083
#   55      5.5032    130.9609
#   56      6.8595    135.7108
#   57      4.1043    141.0031
#   58      7.5076    147.0993
#   59      3.6347    154.5715
#   60     17.3482    165.3997
   0    3.93193E+03    1.0000000000000000
   1    3.31107E+03    0.8420986547340042
   2    3.12804E+03    0.7955496123483486
   3    2.96117E+03    0.7531100141505379
   4    2.88499E+03    0.7337348841435192
   5    2.75641E+03    0.7010326219336981
   6    2.70423E+03    0.6877608985149630
   7    2.60994E+03    0.6637806225853298
   8    2.55422E+03    0.6496096628180957
   9    2.46509E+03    0.6269417232402102
  10    2.40298E+03    0.6111457516396736
  11    2.32285E+03    0.5907659959959848
  12    2.25990E+03    0.5747558549965042
  13    2.18874E+03    0.5566580944065285
  14    2.13124E+03    0.5420342588580047
  15    2.05679E+03    0.5231008066400495
  16    1.99403E+03    0.5071387587167497
  17    1.92581E+03    0.4897887733175120
  18    1.86477E+03    0.4742641003655661
  19    1.79755E+03    0.4571670092523277
  20    1.73804E+03    0.4420330180714819
  21    1.67423E+03    0.4258034726971764
  22    1.61495E+03    0.4107267092370754
  23    1.55201E+03    0.3947191719313868
  24    1.49479E+03    0.3801659733634836
  25    1.43310E+03    0.3644777895088950
  26    1.37631E+03    0.3500345512215178
  27    1.31691E+03    0.3349282740845792
  28    1.26241E+03    0.3210666367987081
  29    1.20643E+03    0.3068301049085803
  30    1.15270E+03    0.2931637649443634
  31    1.09823E+03    0.2793104057796173
  32    1.04712E+03    0.2663129505970506
  33    9.94688E+02    0.2529770698047813
  34    9.46770E+02    0.2407902233276979
  35    8.96070E+02    0.2278958954955927
  36    8.49592E+02    0.2160750547993183
  37    8.01789E+02    0.2039176176949533
  38    7.56413E+02    0.1923771168311775
  39    7.10276E+02    0.1806432507172812
  40    6.67707E+02    0.1698167287955281
  41    6.23162E+02    0.1584876471896190
  42    5.82388E+02    0.1481175641851119
  43    5.39946E+02    0.1373233332947180
  44    5.00621E+02    0.1273218840364733
  45    4.60563E+02    0.1171340937136815
  46    4.22542E+02    0.1074642650147582
  47    3.84842E+02    0.0978762384801545
  48    3.49421E+02    0.0888676068596236
  49    3.13620E+02    0.0797624570590227
  50    2.79876E+02    0.0711802908878309
  51    2.45999E+02    0.0625645363949031
  52    2.15508E+02    0.0548097005061045
  53    1.83322E+02    0.0466239417823900
  54    1.56438E+02    0.0397864631995676
  55    1.24340E+02    0.0316232569051230
  56    1.02661E+02    0.0261094619461692
  57    7.14956E+01    0.0181833335995276
  58    6.60294E+01    0.0167931392055174
