  # July 4, 2014 12:22:22
 # jmin,jmax    0   50
 # Eau     0.00200000
 # r0,ra,rb,rdel,tol,Bau,mu   3.5000  25.0000  25.0000   4.0000  1.0000E-03  3.0130E-07  6.8548E+03
 # parity bigJ  0  0        1  0        1  1        2  0        2  1        2  2        3  0        3  1        3  2        3  3
 # jmin,jmax,maxlamb are            0          50         100
 # j and jp are          27          45
 # lam  B-lambda(j,jp)  angle
#   18     15.6462      6.8646
#   19      1.2400     12.1382
#   20      5.8793     15.9179
#   21      1.0191     19.1141
#   22      3.7352     21.9850
#   23      0.8094     24.6467
#   24      2.7712     27.1630
#   25      0.6318     29.5731
#   26      2.0994     31.9031
#   27      0.4792     34.1716
#   28      1.6029     36.3920
#   29      0.3394     38.5748
#   30      1.2653     40.7282
#   31      0.2144     42.8588
#   32      0.9727     44.9720
#   33      0.1213     47.0725
#   34      0.6686     49.1642
#   35      0.0678     51.2506
#   36      0.4667     53.3348
#   37      0.0445     55.4197
#   38      0.3840     57.5078
#   39      0.0339     59.6017
#   40      0.3482     61.7036
#   41      0.0259     63.8158
#   42      0.3057     65.9405
#   43      0.0191     68.0800
#   44      0.2106     70.2365
#   45      0.0135     72.4122
#   46      0.1304     74.6096
#   47      0.0086     76.8310
#   48      0.1130     79.0791
#   49      0.0046     81.3566
#   50      0.0889     83.6665
#   51      0.0020     86.0121
#   52      0.0420     88.3967
#   53      0.0008     90.8244
#   54      0.0133     93.2995
#   55      0.0003     95.8268
#   56      0.0049     98.4118
#   57      0.0001    101.0609
#   58      0.0016    103.7812
#   59      0.0000    106.5815
#   60      0.0003    109.4717
#   61      0.0000    112.4641
#   62      0.0001    115.5733
#   63      0.0000    118.8179
#   64      0.0001    122.2211
#   65      0.0000    125.8134
#   66      0.0000    129.6359
#   67      0.0000    133.7462
#   68      0.0000    138.2298
#   69      0.0000    143.2238
#   70      0.0000    148.9744
#   71      0.0000    156.0208
#   72      0.0000    166.2274
   0    2.73689E+01    1.0000000000000000
   1    2.36052E+01    0.8624847409276523
   2    1.81698E+01    0.6638851733752517
   3    1.33395E+01    0.4873970362502597
   4    9.99777E+00    0.3652971766866396
   5    7.81216E+00    0.2854395617209746
   6    6.29080E+00    0.2298525803431687
   7    5.26424E+00    0.1923440341390547
   8    4.65368E+00    0.1700355868983701
   9    4.27115E+00    0.1560586077092503
  10    3.93291E+00    0.1437000216513918
  11    3.57720E+00    0.1307031608584117
  12    3.21743E+00    0.1175582083515773
  13    2.87821E+00    0.1051635380685044
  14    2.59745E+00    0.0949051770125024
  15    2.40751E+00    0.0879653466896783
  16    2.27992E+00    0.0833035046141780
  17    2.13883E+00    0.0781482846868483
  18    1.95354E+00    0.0713781934679291
  19    1.77287E+00    0.0647769507289314
  20    1.64722E+00    0.0601859161991603
  21    1.56255E+00    0.0570924173291722
  22    1.47881E+00    0.0540325576777129
  23    1.38976E+00    0.0507790171224344
  24    1.31269E+00    0.0479627642964693
  25    1.24781E+00    0.0455921470396370
  26    1.18079E+00    0.0431436956665801
  27    1.10907E+00    0.0405229223603738
  28    1.04399E+00    0.0381451684289642
  29    9.91608E-01    0.0362312502687177
  30    9.46793E-01    0.0345938045939333
  31    9.02418E-01    0.0329724276169470
  32    8.57920E-01    0.0313465672204711
  33    8.15845E-01    0.0298092400269506
  34    7.78563E-01    0.0284470277521115
  35    7.45220E-01    0.0272287445572950
  36    7.15126E-01    0.0261291958432450
  37    6.87843E-01    0.0251323338133593
  38    6.62497E-01    0.0242062291419189
  39    6.40219E-01    0.0233922485006831
  40    6.20994E-01    0.0226898138580197
  41    6.00349E-01    0.0219354569377339
  42    5.88417E-01    0.0214994922277720
  43    5.71350E-01    0.0208759175049336
  44    5.55026E-01    0.0202794776407869
  45    5.48737E-01    0.0200496717681860
  46    5.53278E-01    0.0202155849673123
  47    4.80885E-01    0.0175705273928977
  48    5.39535E-01    0.0197134651024229
  49    4.39767E-01    0.0160681452318292
  50    5.13873E-01    0.0187758246057810
  51    4.10615E-01    0.0150029954520582
  52    6.31881E-01    0.0230875997040117
  53    3.31699E-01    0.0121195657376314
  54    7.26210E-01    0.0265341793341749
