  # July 4, 2014 12:22:22
 # jmin,jmax    0   50
 # Eau     0.00200000
 # r0,ra,rb,rdel,tol,Bau,mu   3.5000  25.0000  25.0000   4.0000  1.0000E-03  3.0130E-07  6.8548E+03
 # parity bigJ  0  0        1  0        1  1        2  0        2  1        2  2        3  0        3  1        3  2        3  3
 # jmin,jmax,maxlamb are            0          50         100
 # j and jp are          21          41
 # lam  B-lambda(j,jp)  angle
#   20     12.5663      8.5635
#   21      0.8375     15.1363
#   22      4.9326     19.8403
#   23      0.5842     23.8148
#   24      3.0969     27.3835
#   25      0.3629     30.6925
#   26      2.1075     33.8221
#   27      0.2078     36.8222
#   28      1.4994     39.7263
#   29      0.1152     42.5580
#   30      1.0933     45.3351
#   31      0.0671     48.0714
#   32      0.8835     50.7780
#   33      0.0461     53.4639
#   34      0.7298     56.1369
#   35      0.0372     58.8038
#   36      0.5022     61.4707
#   37      0.0299     64.1430
#   38      0.3462     66.8261
#   39      0.0223     69.5251
#   40      0.2809     72.2447
#   41      0.0164     74.9902
#   42      0.2337     77.7665
#   43      0.0121     80.5790
#   44      0.1962     83.4335
#   45      0.0085     86.3360
#   46      0.1452     89.2934
#   47      0.0057     92.3132
#   48      0.1096     95.4039
#   49      0.0035     98.5755
#   50      0.1029    101.8394
#   51      0.0017    105.2094
#   52      0.0762    108.7021
#   53      0.0007    112.3379
#   54      0.0345    116.1428
#   55      0.0002    120.1505
#   56      0.0120    124.4063
#   57      0.0001    128.9737
#   58      0.0051    133.9468
#   59      0.0000    139.4763
#   60      0.0018    145.8332
#   61      0.0000    153.6109
#   62      0.0005    164.8637
   0    2.59623E+01    1.0000000000000000
   1    2.09792E+01    0.8080636936848933
   2    1.52261E+01    0.5864693885440605
   3    1.12168E+01    0.4320411904244973
   4    8.54144E+00    0.3289937822963598
   5    6.64573E+00    0.2559760505241434
   6    5.43893E+00    0.2094931041787526
   7    4.60786E+00    0.1774827143709188
   8    3.92031E+00    0.1509998340611724
   9    3.40525E+00    0.1311613620028176
  10    3.03316E+00    0.1168294509991435
  11    2.73995E+00    0.1055357572192412
  12    2.54620E+00    0.0980730997426058
  13    2.38321E+00    0.0917949792581269
  14    2.16482E+00    0.0833832184367421
  15    1.93795E+00    0.0746447342740604
  16    1.77672E+00    0.0684346261366350
  17    1.65526E+00    0.0637564406372733
  18    1.55540E+00    0.0599097378958254
  19    1.46223E+00    0.0563211795098725
  20    1.37311E+00    0.0528885875004981
  21    1.26765E+00    0.0488263933820165
  22    1.18420E+00    0.0456122707261923
  23    1.11489E+00    0.0429424324746530
  24    1.07229E+00    0.0413017113161218
  25    1.01580E+00    0.0391259851940853
  26    9.75668E-01    0.0375801571688667
  27    9.14629E-01    0.0352291004826349
  28    8.95043E-01    0.0344747084817192
  29    8.23158E-01    0.0317058577188867
  30    8.40607E-01    0.0323779518577894
  31    7.35011E-01    0.0283107030510618
  32    7.92765E-01    0.0305352352449093
  33    6.63216E-01    0.0255453327440367
  34    7.33911E-01    0.0282683020117683
  35    6.11218E-01    0.0235424883564899
  36    7.13294E-01    0.0274741935762930
  37    5.54464E-01    0.0213564809042148
  38    6.78631E-01    0.0261390657499657
  39    4.33608E-01    0.0167014288229173
  40    6.78630E-01    0.0261390526554982
  41    4.30685E-01    0.0165888663995210
  42    8.78825E-01    0.0338500194152986
