  # July 4, 2014 12:22:22
 # jmin,jmax    0   50
 # Eau     0.00200000
 # r0,ra,rb,rdel,tol,Bau,mu   3.5000  25.0000  25.0000   4.0000  1.0000E-03  3.0130E-07  6.8548E+03
 # parity bigJ  0  0        1  0        1  1        2  0        2  1        2  2        3  0        3  1        3  2        3  3
 # jmin,jmax,maxlamb are            0          50         100
 # j and jp are          12          46
 # lam  B-lambda(j,jp)  angle
#   34      2.9162     13.7948
#   35      0.0138     24.3715
#   36      1.1363     31.9077
#   37      0.0141     38.2618
#   38      0.7103     43.9655
#   39      0.0115     49.2619
#   40      0.5407     54.2869
#   41      0.0084     59.1276
#   42      0.4081     63.8445
#   43      0.0057     68.4837
#   44      0.2607     73.0820
#   45      0.0036     77.6715
#   46      0.1517     82.2813
#   47      0.0021     86.9401
#   48      0.1264     91.6774
#   49      0.0012     96.5255
#   50      0.1184    101.5218
#   51      0.0006    106.7118
#   52      0.0749    112.1540
#   53      0.0002    117.9278
#   54      0.0301    124.1486
#   55      0.0001    130.9991
#   56      0.0111    138.8051
#   57      0.0000    148.2794
#   58      0.0073    161.8958
   0    1.03075E+01    1.0000000000000000
   1    7.22286E+00    0.7007411953853366
   2    4.43087E+00    0.4298704846897750
   3    3.02873E+00    0.2938381881128004
   4    2.30856E+00    0.2239698283108142
   5    1.86799E+00    0.1812271939072717
   6    1.67712E+00    0.1627088964044621
   7    1.42704E+00    0.1384473209236297
   8    1.14768E+00    0.1113441944597870
   9    9.76783E-01    0.0947646204181649
  10    9.19414E-01    0.0891988665125448
  11    8.30013E-01    0.0805254063297562
  12    7.50164E-01    0.0727787104823816
  13    6.66847E-01    0.0646954961156941
  14    6.24551E-01    0.0605921545960654
  15    5.55716E-01    0.0539139709635369
  16    5.30252E-01    0.0514434632122802
  17    4.58708E-01    0.0445025042274601
  18    4.69144E-01    0.0455149635825763
  19    3.74697E-01    0.0363520099168649
  20    4.53256E-01    0.0439736035025637
  21    2.98993E-01    0.0290074303120801
  22    4.75037E-01    0.0460866792294359
  23    3.02521E-01    0.0293496632983037
  24    5.15135E-01    0.0499768541183899
