  # July 4, 2014 12:22:22
 # jmin,jmax    0   50
 # Eau     0.00200000
 # r0,ra,rb,rdel,tol,Bau,mu   3.5000  25.0000  25.0000   4.0000  1.0000E-03  3.0130E-07  6.8548E+03
 # parity bigJ  0  0        1  0        1  1        2  0        2  1        2  2        3  0        3  1        3  2        3  3
 # jmin,jmax,maxlamb are            0          50         100
 # j and jp are          15          49
 # lam  B-lambda(j,jp)  angle
#   34      2.5504     12.0197
#   35      0.0139     21.1828
#   36      1.0618     27.6888
#   37      0.0109     33.1509
#   38      0.7258     38.0310
#   39      0.0098     42.5390
#   40      0.5357     46.7917
#   41      0.0079     50.8624
#   42      0.3681     54.8014
#   43      0.0059     58.6452
#   44      0.2371     62.4220
#   45      0.0041     66.1545
#   46      0.1594     69.8620
#   47      0.0027     73.5613
#   48      0.1126     77.2679
#   49      0.0014     80.9967
#   50      0.0664     84.7623
#   51      0.0006     88.5802
#   52      0.0266     92.4665
#   53      0.0002     96.4394
#   54      0.0077    100.5197
#   55      0.0001    104.7321
#   56      0.0031    109.1068
#   57      0.0000    113.6822
#   58      0.0016    118.5093
#   59      0.0000    123.6586
#   60      0.0005    129.2340
#   61      0.0000    135.4011
#   62      0.0001    142.4568
#   63      0.0000    151.0511
#   64      0.0001    163.4385
   0    8.05944E+00    1.0000000000000000
   1    6.37154E+00    0.7905683122167159
   2    4.19958E+00    0.5210753922153858
   3    2.64975E+00    0.3287757545348958
   4    1.90479E+00    0.2363432342669815
   5    1.57605E+00    0.1955528131673406
   6    1.35835E+00    0.1685416527516431
   7    1.19136E+00    0.1478220416018274
   8    1.07234E+00    0.1330542307860094
   9    9.57140E-01    0.1187601416765452
  10    8.29952E-01    0.1029788468187578
  11    7.24450E-01    0.0898884087621834
  12    6.58721E-01    0.0817329122675993
  13    6.12017E-01    0.0759379604946781
  14    5.66200E-01    0.0702530412014439
  15    5.22160E-01    0.0647886892907965
  16    4.85383E-01    0.0602254051994856
  17    4.54390E-01    0.0563798495210577
  18    4.27638E-01    0.0530605107981901
  19    4.03385E-01    0.0500512791574577
  20    3.83671E-01    0.0476051740448620
  21    3.65445E-01    0.0453437906694320
  22    3.52609E-01    0.0437510395831504
  23    3.38123E-01    0.0419536492761605
  24    3.30250E-01    0.0409767938993126
  25    3.17020E-01    0.0393352800686716
  26    3.08944E-01    0.0383331308206745
  27    2.94037E-01    0.0364836059794152
  28    2.83736E-01    0.0352053691472605
  29    2.15141E-01    0.0266943257563108
  30    3.02908E-01    0.0375843000634167
