  # July 4, 2014 12:22:22
 # jmin,jmax    0   50
 # Eau     0.00200000
 # r0,ra,rb,rdel,tol,Bau,mu   3.5000  25.0000  25.0000   4.0000  1.0000E-03  3.0130E-07  6.8548E+03
 # parity bigJ  0  0        1  0        1  1        2  0        2  1        2  2        3  0        3  1        3  2        3  3
 # jmin,jmax,maxlamb are            0          50         100
 # j and jp are          27          33
 # lam  B-lambda(j,jp)  angle
#    6    265.2471      4.6220
#    7     13.4307      8.4488
#    8     68.1312     11.3448
#    9      5.7655     13.9065
#   10     29.2250     16.2947
#   11      2.8695     18.5785
#   12     14.6934     20.7947
#   13      1.7786     22.9650
#   14      8.2149     25.1036
#   15      1.0426     27.2202
#   16      4.9742     29.3218
#   17      0.5488     31.4139
#   18      3.2363     33.5005
#   19      0.3040     35.5852
#   20      2.3852     37.6708
#   21      0.1851     39.7597
#   22      1.8364     41.8541
#   23      0.1293     43.9560
#   24      1.4781     46.0672
#   25      0.1010     48.1894
#   26      1.2666     50.3244
#   27      0.0834     52.4738
#   28      1.0820     54.6393
#   29      0.0707     56.8225
#   30      0.8727     59.0252
#   31      0.0601     61.2492
#   32      0.7373     63.4962
#   33      0.0491     65.7684
#   34      0.6554     68.0678
#   35      0.0389     70.3966
#   36      0.4829     72.7574
#   37      0.0309     75.1527
#   38      0.3278     77.5854
#   39      0.0245     80.0587
#   40      0.2664     82.5762
#   41      0.0188     85.1417
#   42      0.2252     87.7598
#   43      0.0139     90.4355
#   44      0.1953     93.1744
#   45      0.0097     95.9831
#   46      0.1599     98.8693
#   47      0.0065    101.8420
#   48      0.1181    104.9117
#   49      0.0041    108.0914
#   50      0.1084    111.3967
#   51      0.0022    114.8471
#   52      0.0964    118.4674
#   53      0.0009    122.2900
#   54      0.0551    126.3586
#   55      0.0003    130.7345
#   56      0.0212    135.5089
#   57      0.0001    140.8276
#   58      0.0093    146.9530
#   59      0.0000    154.4601
#   60      0.0059    165.3371
   0    1.21069E+02    1.0000000000000000
   1    1.11780E+02    0.9232780955330097
   2    1.00724E+02    0.8319560166793079
   3    9.13604E+01    0.7546166139286511
   4    8.30959E+01    0.6863533646062450
   5    7.55744E+01    0.6242278038682629
   6    6.85964E+01    0.5665912268173553
   7    6.18980E+01    0.5112636128570688
   8    5.58118E+01    0.4609931931255805
   9    5.04704E+01    0.4168738642910030
  10    4.58168E+01    0.3784364710649846
  11    4.17692E+01    0.3450039578385172
  12    3.81832E+01    0.3153849151927106
  13    3.49700E+01    0.2888445387907665
  14    3.22125E+01    0.2660681300877366
  15    2.97702E+01    0.2458952657029047
  16    2.75471E+01    0.2275330118630691
  17    2.55195E+01    0.2107855556636445
  18    2.37341E+01    0.1960382240758358
  19    2.21294E+01    0.1827837109338046
  20    2.07122E+01    0.1710778473274037
  21    1.93836E+01    0.1601045399701143
  22    1.81804E+01    0.1501658465517539
  23    1.70674E+01    0.1409730806529521
  24    1.61324E+01    0.1332498867610367
  25    1.52230E+01    0.1257389002056130
  26    1.44417E+01    0.1192847886331557
  27    1.36080E+01    0.1123994231569052
  28    1.29570E+01    0.1070222029099389
  29    1.22044E+01    0.1008054898383840
  30    1.16658E+01    0.0963565666450370
  31    1.09740E+01    0.0906426287005434
  32    1.05148E+01    0.0868497035247970
  33    9.89733E+00    0.0817497227956280
  34    9.50361E+00    0.0784977030036122
  35    8.93765E+00    0.0738230220718816
  36    8.60750E+00    0.0710960027463225
  37    8.05556E+00    0.0665371295660191
  38    7.79099E+00    0.0643518099274754
  39    7.25455E+00    0.0599209902432943
  40    7.04329E+00    0.0581759987132475
  41    6.50374E+00    0.0537194241190462
  42    6.37286E+00    0.0526383640514317
  43    5.83322E+00    0.0481811243461543
  44    5.70556E+00    0.0471266820461411
  45    5.17148E+00    0.0427152813771349
  46    5.12604E+00    0.0423399363712002
  47    4.40519E+00    0.0363858583769240
  48    4.54663E+00    0.0375541287398805
  49    3.67531E+00    0.0303572715645941
  50    3.97936E+00    0.0328686148582555
  51    2.84617E+00    0.0235087340401783
  52    3.43175E+00    0.0283454954795291
  53    1.89916E+00    0.0156866542924832
  54    3.22765E+00    0.0266596668548006
