  # July 4, 2014 12:22:22
 # jmin,jmax    0   50
 # Eau     0.00200000
 # r0,ra,rb,rdel,tol,Bau,mu   3.5000  25.0000  25.0000   4.0000  1.0000E-03  3.0130E-07  6.8548E+03
 # parity bigJ  0  0        1  0        1  1        2  0        2  1        2  2        3  0        3  1        3  2        3  3
 # jmin,jmax,maxlamb are            0          50         100
 # j and jp are          20          22
 # lam  B-lambda(j,jp)  angle
#    2   2483.2650      3.7725
#    3     37.2842      7.5522
#    4    297.8065     10.6889
#    5     10.6382     13.6385
#    6     89.8550     16.5065
#    7      2.8214     19.3343
#    8     35.8713     22.1425
#    9      0.9769     24.9432
#   10     16.9433     27.7442
#   11      0.4429     30.5514
#   12      8.9183     33.3693
#   13      0.2382     36.2016
#   14      5.2111     39.0520
#   15      0.1463     41.9236
#   16      3.3634     44.8196
#   17      0.0979     47.7433
#   18      2.3942     50.6981
#   19      0.0715     53.6873
#   20      1.7906     56.7147
#   21      0.0554     59.7844
#   22      1.4822     62.9008
#   23      0.0443     66.0687
#   24      1.2264     69.2936
#   25      0.0362     72.5814
#   26      1.0633     75.9392
#   27      0.0296     79.3749
#   28      0.9648     82.8975
#   29      0.0240     86.5178
#   30      0.8495     90.2486
#   31      0.0191     94.1050
#   32      0.7266     98.1056
#   33      0.0149    102.2737
#   34      0.6823    106.6386
#   35      0.0111    111.2389
#   36      0.6446    116.1261
#   37      0.0078    121.3731
#   38      0.5172    127.0878
#   39      0.0052    133.4434
#   40      0.4613    140.7511
#   41      0.0029    149.6940
#   42      0.7368    162.6400
   0    4.40671E+02    1.0000000000000000
   1    4.16078E+02    0.9441912823717626
   2    3.99792E+02    0.9072331806159101
   3    3.80544E+02    0.8635556226275629
   4    3.63098E+02    0.8239642832848838
   5    3.43096E+02    0.7785753811106476
   6    3.25705E+02    0.7391104909921132
   7    3.07179E+02    0.6970701262346352
   8    2.91106E+02    0.6605968974766608
   9    2.74691E+02    0.6233453051415100
  10    2.60245E+02    0.5905640249252482
  11    2.45638E+02    0.5574174827783501
  12    2.32917E+02    0.5285510881006853
  13    2.19900E+02    0.4990110632649108
  14    2.08531E+02    0.4732109135455946
  15    1.96931E+02    0.4468885768305538
  16    1.86818E+02    0.4239401988868607
  17    1.76316E+02    0.4001084239852652
  18    1.67274E+02    0.3795899512886838
  19    1.57695E+02    0.3578507422609876
  20    1.49631E+02    0.3395532045925239
  21    1.40802E+02    0.3195162758217709
  22    1.33534E+02    0.3030232951343168
  23    1.25320E+02    0.2843833373429456
  24    1.18694E+02    0.2693475808995093
  25    1.11056E+02    0.2520157153964541
  26    1.04978E+02    0.2382224232132090
  27    9.77800E+01    0.2218885409277009
  28    9.21850E+01    0.2091922246692659
  29    8.53039E+01    0.1935771681033987
  30    8.02265E+01    0.1820551503141747
  31    7.36136E+01    0.1670486825798592
  32    6.89344E+01    0.1564304163614900
  33    6.24997E+01    0.1418283781131560
  34    5.82317E+01    0.1321430997120807
  35    5.18065E+01    0.1175626527870651
  36    4.79195E+01    0.1087420716239480
  37    4.11528E+01    0.0933866800311488
  38    3.77992E+01    0.0857763401932987
  39    2.95911E+01    0.0671499578672538
  40    2.84451E+01    0.0645494936483035
