  # July 4, 2014 12:22:22
 # jmin,jmax    0   50
 # Eau     0.00200000
 # r0,ra,rb,rdel,tol,Bau,mu   3.5000  25.0000  25.0000   4.0000  1.0000E-03  3.0130E-07  6.8548E+03
 # parity bigJ  0  0        1  0        1  1        2  0        2  1        2  2        3  0        3  1        3  2        3  3
 # jmin,jmax,maxlamb are            0          50         100
 # j and jp are          25          33
 # lam  B-lambda(j,jp)  angle
#    8    123.8434      5.5412
#    9      7.1283     10.0064
#   10     35.3770     13.3250
#   11      3.0236     16.2197
#   12     15.9417     18.8892
#   13      1.6317     21.4208
#   14      8.3385     23.8609
#   15      0.8994     26.2380
#   16      4.9434     28.5704
#   17      0.4479     30.8712
#   18      3.2068     33.1496
#   19      0.2412     35.4129
#   20      2.3675     37.6668
#   21      0.1529     39.9159
#   22      1.8379     42.1640
#   23      0.1106     44.4147
#   24      1.4714     46.6707
#   25      0.0888     48.9349
#   26      1.2664     51.2098
#   27      0.0755     53.4978
#   28      1.0828     55.8011
#   29      0.0646     58.1222
#   30      0.8701     60.4634
#   31      0.0540     62.8270
#   32      0.7296     65.2154
#   33      0.0437     67.6312
#   34      0.6548     70.0772
#   35      0.0344     72.5563
#   36      0.4921     75.0715
#   37      0.0272     77.6262
#   38      0.3319     80.2243
#   39      0.0216     82.8699
#   40      0.2673     85.5675
#   41      0.0165     88.3225
#   42      0.2272     91.1406
#   43      0.0122     94.0288
#   44      0.1972     96.9949
#   45      0.0085    100.0481
#   46      0.1659    103.1993
#   47      0.0057    106.4618
#   48      0.1243    109.8514
#   49      0.0036    113.3883
#   50      0.1134    117.0977
#   51      0.0019    121.0127
#   52      0.1074    125.1780
#   53      0.0008    129.6563
#   54      0.0686    134.5405
#   55      0.0002    139.9797
#   56      0.0304    146.2419
#   57      0.0001    153.9142
#   58      0.0194    165.0281
   0    8.25141E+01    1.0000000000000000
   1    7.31344E+01    0.8863255960282104
   2    6.33372E+01    0.7675924268844774
   3    5.56782E+01    0.6747720241752890
   4    4.93720E+01    0.5983457142816310
   5    4.40112E+01    0.5333777467213425
   6    3.91015E+01    0.4738768931109476
   7    3.44323E+01    0.4172894613377692
   8    3.03914E+01    0.3683177250304272
   9    2.68882E+01    0.3258619564898423
  10    2.40009E+01    0.2908698080444606
  11    2.15086E+01    0.2606660367992053
  12    1.93429E+01    0.2344197885008632
  13    1.75031E+01    0.2121221388645285
  14    1.60223E+01    0.1941764106759665
  15    1.46613E+01    0.1776818001450865
  16    1.34876E+01    0.1634586359643393
  17    1.24069E+01    0.1503613744580165
  18    1.15402E+01    0.1398575276973033
  19    1.07219E+01    0.1299406551604944
  20    1.00558E+01    0.1218674245977934
  21    9.31430E+00    0.1128813031628981
  22    8.77211E+00    0.1063103545276704
  23    8.17562E+00    0.0990815005421635
  24    7.80913E+00    0.0946399581594067
  25    7.27857E+00    0.0882099518275694
  26    6.97645E+00    0.0845485135848837
  27    6.49027E+00    0.0786564194074816
  28    6.24778E+00    0.0757176498642522
  29    5.81206E+00    0.0704371799783686
  30    5.60506E+00    0.0679284876582649
  31    5.20734E+00    0.0631085152845745
  32    5.05331E+00    0.0612417060682115
  33    4.67111E+00    0.0566097636307244
  34    4.57290E+00    0.0554196251489241
  35    4.18798E+00    0.0507547364488633
  36    4.12464E+00    0.0499871334835930
  37    3.73465E+00    0.0452607784330277
  38    3.71552E+00    0.0450288902206331
  39    3.28535E+00    0.0398156431852347
  40    3.29084E+00    0.0398821371594602
  41    2.87603E+00    0.0348550552727317
  42    2.89376E+00    0.0350698755246940
  43    2.40218E+00    0.0291123367244597
  44    2.62052E+00    0.0317584381464680
  45    1.93519E+00    0.0234528114441772
  46    2.30550E+00    0.0279406549375897
  47    1.45471E+00    0.0176298029197449
  48    2.12193E+00    0.0257159203516668
  49    9.54630E-01    0.0115692905186403
  50    2.33197E+00    0.0282615086912039
