  # July 4, 2014 12:22:22
 # jmin,jmax    0   50
 # Eau     0.00200000
 # r0,ra,rb,rdel,tol,Bau,mu   3.5000  25.0000  25.0000   4.0000  1.0000E-03  3.0130E-07  6.8548E+03
 # parity bigJ  0  0        1  0        1  1        2  0        2  1        2  2        3  0        3  1        3  2        3  3
 # jmin,jmax,maxlamb are            0          50         100
 # j and jp are          14          44
 # lam  B-lambda(j,jp)  angle
#   30      3.6186     12.3100
#   31      0.0495     21.7308
#   32      1.6180     28.4411
#   33      0.0480     34.0928
#   34      1.0665     39.1584
#   35      0.0381     43.8525
#   36      0.6924     48.2949
#   37      0.0274     52.5610
#   38      0.4822     56.7025
#   39      0.0181     60.7577
#   40      0.3694     64.7561
#   41      0.0113     68.7223
#   42      0.3059     72.6772
#   43      0.0073     76.6399
#   44      0.2489     80.6285
#   45      0.0050     84.6610
#   46      0.1624     88.7559
#   47      0.0033     92.9335
#   48      0.1118     97.2163
#   49      0.0019    101.6308
#   50      0.1056    106.2092
#   51      0.0009    110.9919
#   52      0.0789    116.0323
#   53      0.0003    121.4041
#   54      0.0370    127.2155
#   55      0.0001    133.6387
#   56      0.0147    140.9826
#   57      0.0000    149.9227
#   58      0.0101    162.8036
   0    1.24441E+01    1.0000000000000000
   1    8.67420E+00    0.6970520245110695
   2    5.35014E+00    0.4299333318490173
   3    3.64206E+00    0.2926730852516902
   4    2.69300E+00    0.2164077045658890
   5    2.07109E+00    0.1664308450889176
   6    1.73059E+00    0.1390692308764812
   7    1.44278E+00    0.1159404953878857
   8    1.31140E+00    0.1053834652922398
   9    1.24277E+00    0.0998683314248098
  10    1.13191E+00    0.0909591387039842
  11    9.78497E-01    0.0786312631135014
  12    9.11645E-01    0.0732590895431678
  13    8.36184E-01    0.0671951369781730
  14    7.78331E-01    0.0625460611201598
  15    7.00571E-01    0.0562973905524521
  16    6.84084E-01    0.0549724316025433
  17    6.25596E-01    0.0502724142970847
  18    6.29883E-01    0.0506169129103569
  19    5.51750E-01    0.0443381885139960
  20    5.89781E-01    0.0473943894621442
  21    4.76511E-01    0.0382920339711388
  22    5.56710E-01    0.0447368033324372
  23    3.97767E-01    0.0319642280676143
  24    4.94999E-01    0.0397777167301264
  25    3.39780E-01    0.0273044791403676
  26    4.53406E-01    0.0364353969340080
  27    2.17162E-01    0.0174509341578656
  28    5.82666E-01    0.0468225846567144
