  # July 4, 2014 12:22:22
 # jmin,jmax    0   50
 # Eau     0.00200000
 # r0,ra,rb,rdel,tol,Bau,mu   3.5000  25.0000  25.0000   4.0000  1.0000E-03  3.0130E-07  6.8548E+03
 # parity bigJ  0  0        1  0        1  1        2  0        2  1        2  2        3  0        3  1        3  2        3  3
 # jmin,jmax,maxlamb are            0          50         100
 # j and jp are          19          45
 # lam  B-lambda(j,jp)  angle
#   26      6.2636      9.7859
#   27      0.1538     17.2525
#   28      2.6182     22.5663
#   29      0.1124     27.0338
#   30      1.7461     31.0283
#   31      0.0797     34.7185
#   32      1.3188     38.1979
#   33      0.0518     41.5246
#   34      0.8971     44.7378
#   35      0.0343     47.8656
#   36      0.5598     50.9291
#   37      0.0254     53.9448
#   38      0.4089     56.9262
#   39      0.0202     59.8845
#   40      0.3549     62.8292
#   41      0.0157     65.7690
#   42      0.3133     68.7117
#   43      0.0117     71.6647
#   44      0.2303     74.6350
#   45      0.0082     77.6297
#   46      0.1405     80.6560
#   47      0.0052     83.7210
#   48      0.1129     86.8329
#   49      0.0029     90.0000
#   50      0.1022     93.2318
#   51      0.0014     96.5390
#   52      0.0607     99.9338
#   53      0.0005    103.4307
#   54      0.0221    107.0469
#   55      0.0002    110.8037
#   56      0.0073    114.7279
#   57      0.0001    118.8539
#   58      0.0029    123.2281
#   59      0.0000    127.9154
#   60      0.0007    133.0117
#   61      0.0000    138.6707
#   62      0.0002    145.1682
#   63      0.0000    153.1086
#   64      0.0003    164.5852
   0    1.61412E+01    1.0000000000000000
   1    1.28195E+01    0.7942069103686186
   2    8.81315E+00    0.5460032284048182
   3    6.09281E+00    0.3774692399327929
   4    4.55997E+00    0.2825046068823281
   5    3.52414E+00    0.2183319997990939
   6    2.81231E+00    0.1742318142620952
   7    2.40777E+00    0.1491693470500989
   8    2.16772E+00    0.1342973638183366
   9    1.99936E+00    0.1238665424581661
  10    1.87577E+00    0.1162099555146907
  11    1.71197E+00    0.1060621417240833
  12    1.47685E+00    0.0914956709981612
  13    1.27522E+00    0.0790042814552581
  14    1.18051E+00    0.0731363451926201
  15    1.13002E+00    0.0700083691392799
  16    1.06137E+00    0.0657551147821904
  17    9.89703E-01    0.0613153256557690
  18    9.37000E-01    0.0580501756361591
  19    8.88229E-01    0.0550286782551881
  20    8.33018E-01    0.0516081868043045
  21    7.78780E-01    0.0482479234819130
  22    7.36547E-01    0.0456314456307583
  23    6.99761E-01    0.0433524724670873
  24    6.70042E-01    0.0415112618942810
  25    6.37177E-01    0.0394751680366588
  26    6.14918E-01    0.0380961603075093
  27    5.88760E-01    0.0364755874198904
  28    5.76376E-01    0.0357083401645606
  29    5.58037E-01    0.0345721781457519
  30    5.58603E-01    0.0346072617375957
  31    5.28343E-01    0.0327325816051412
  32    5.66138E-01    0.0350740795501841
  33    4.58613E-01    0.0284125700006258
  34    5.39880E-01    0.0334473282897987
  35    3.85029E-01    0.0238537894426266
  36    4.44878E-01    0.0275616548321639
  37    2.26888E-01    0.0140564634912368
  38    5.57132E-01    0.0345161271097854
