  # July 4, 2014 12:22:22
 # jmin,jmax    0   50
 # Eau     0.00200000
 # r0,ra,rb,rdel,tol,Bau,mu   3.5000  25.0000  25.0000   4.0000  1.0000E-03  3.0130E-07  6.8548E+03
 # parity bigJ  0  0        1  0        1  1        2  0        2  1        2  2        3  0        3  1        3  2        3  3
 # jmin,jmax,maxlamb are            0          50         100
 # j and jp are          16          42
 # lam  B-lambda(j,jp)  angle
#   26      6.9567     11.0010
#   27      0.1678     19.4210
#   28      2.9920     25.4246
#   29      0.1507     30.4836
#   30      1.8947     35.0181
#   31      0.1173     39.2184
#   32      1.3952     43.1903
#   33      0.0842     46.9998
#   34      1.0300     50.6919
#   35      0.0550     54.2992
#   36      0.6474     57.8466
#   37      0.0334     61.3539
#   38      0.4140     64.8379
#   39      0.0207     68.3130
#   40      0.3038     71.7922
#   41      0.0137     75.2876
#   42      0.2271     78.8112
#   43      0.0090     82.3749
#   44      0.1885     85.9911
#   45      0.0056     89.6730
#   46      0.1474     93.4355
#   47      0.0035     97.2953
#   48      0.1129    101.2721
#   49      0.0021    105.3896
#   50      0.1089    109.6772
#   51      0.0010    114.1725
#   52      0.0880    118.9259
#   53      0.0004    124.0072
#   54      0.0451    129.5197
#   55      0.0001    135.6281
#   56      0.0183    142.6284
#   57      0.0000    151.1686
#   58      0.0126    163.4951
   0    1.98649E+01    1.0000000000000000
   1    1.48405E+01    0.7470692581672713
   2    9.99672E+00    0.5032351517867945
   3    6.83755E+00    0.3442022268555061
   4    4.77059E+00    0.2401516573941192
   5    3.62422E+00    0.1824432894017095
   6    3.15208E+00    0.1586758552198716
   7    2.78475E+00    0.1401841618048330
   8    2.51005E+00    0.1263559150783362
   9    2.21252E+00    0.1113782013096071
  10    1.91601E+00    0.0964519765083588
  11    1.68421E+00    0.0847828999938685
  12    1.57511E+00    0.0792908695420627
  13    1.45668E+00    0.0733293007737204
  14    1.38906E+00    0.0699251953536715
  15    1.29364E+00    0.0651216063234773
  16    1.22147E+00    0.0614887247846515
  17    1.09647E+00    0.0551964281414021
  18    1.05558E+00    0.0531377172519643
  19    9.55919E-01    0.0481209820782962
  20    9.59467E-01    0.0482995752656023
  21    8.34997E-01    0.0420337788268804
  22    8.72815E-01    0.0439375272155400
  23    7.20377E-01    0.0362637672844497
  24    7.95525E-01    0.0400467311379890
  25    6.35521E-01    0.0319921141151047
  26    7.28052E-01    0.0366501275132858
  27    5.89437E-01    0.0296722798786406
  28    7.29533E-01    0.0367247119128943
  29    5.49114E-01    0.0276423812677872
  30    7.20015E-01    0.0362455714160853
  31    4.20340E-01    0.0211599350944386
  32    7.01119E-01    0.0352943383640820
