  # July 4, 2014 12:22:22
 # jmin,jmax    0   50
 # Eau     0.00200000
 # r0,ra,rb,rdel,tol,Bau,mu   3.5000  25.0000  25.0000   4.0000  1.0000E-03  3.0130E-07  6.8548E+03
 # parity bigJ  0  0        1  0        1  1        2  0        2  1        2  2        3  0        3  1        3  2        3  3
 # jmin,jmax,maxlamb are            0          50         100
 # j and jp are          27          35
 # lam  B-lambda(j,jp)  angle
#    8    126.9349      5.1838
#    9      8.6802      9.3591
#   10     37.3198     12.4611
#   11      3.6812     15.1660
#   12     17.3913     17.6594
#   13      2.0729     20.0227
#   14      9.6775     22.2996
#   15      1.3305     24.5162
#   16      5.9496     26.6900
#   17      0.8819     28.8327
#   18      3.8921     30.9530
#   19      0.5097     33.0577
#   20      2.6607     35.1518
#   21      0.2772     37.2395
#   22      1.9755     39.3242
#   23      0.1675     41.4091
#   24      1.5560     43.4965
#   25      0.1177     45.5890
#   26      1.2957     47.6885
#   27      0.0925     49.7970
#   28      1.0928     51.9166
#   29      0.0761     54.0489
#   30      0.8766     56.1958
#   31      0.0629     58.3590
#   32      0.7532     60.5406
#   33      0.0516     62.7422
#   34      0.6625     64.9658
#   35      0.0415     67.2135
#   36      0.4749     69.4874
#   37      0.0334     71.7899
#   38      0.3256     74.1233
#   39      0.0265     76.4904
#   40      0.2671     78.8940
#   41      0.0204     81.3374
#   42      0.2254     83.8240
#   43      0.0151     86.3578
#   44      0.1944     88.9432
#   45      0.0106     91.5852
#   46      0.1531     94.2895
#   47      0.0071     97.0625
#   48      0.1129     99.9118
#   49      0.0044    102.8464
#   50      0.1050    105.8767
#   51      0.0023    109.0154
#   52      0.0864    112.2780
#   53      0.0009    115.6839
#   54      0.0441    119.2574
#   55      0.0003    123.0306
#   56      0.0156    127.0466
#   57      0.0001    131.3660
#   58      0.0064    136.0787
#   59      0.0000    141.3288
#   60      0.0025    147.3753
#   61      0.0000    154.7857
#   62      0.0006    165.5225
   0    8.28053E+01    1.0000000000000000
   1    7.48933E+01    0.9044508685274647
   2    6.50944E+01    0.7861142769000684
   3    5.70198E+01    0.6886008604191968
   4    5.03409E+01    0.6079436673290863
   5    4.45315E+01    0.5377858875707353
   6    3.94836E+01    0.4768241515331358
   7    3.49018E+01    0.4214927250026646
   8    3.08064E+01    0.3720345059042398
   9    2.73815E+01    0.3306735682370460
  10    2.45408E+01    0.2963681245027102
  11    2.21455E+01    0.2674408297170953
  12    2.00984E+01    0.2427193139747514
  13    1.82559E+01    0.2204676589902075
  14    1.66237E+01    0.2007565408074803
  15    1.52482E+01    0.1841456235604213
  16    1.40405E+01    0.1695605701741218
  17    1.29115E+01    0.1559263011170280
  18    1.19060E+01    0.1437834570212040
  19    1.10377E+01    0.1332966255727326
  20    1.03021E+01    0.1244139960057485
  21    9.65705E+00    0.1166235559756985
  22    9.07840E+00    0.1096354866838426
  23    8.51958E+00    0.1028869416335854
  24    8.02388E+00    0.0969006269827601
  25    7.58352E+00    0.0915826202831450
  26    7.20517E+00    0.0870134718652624
  27    6.82287E+00    0.0823965516884857
  28    6.48023E+00    0.0782587059261215
  29    6.12708E+00    0.0739938169707442
  30    5.85989E+00    0.0707671081143550
  31    5.53948E+00    0.0668976844335375
  32    5.34171E+00    0.0645093247921412
  33    5.01964E+00    0.0606197797242952
  34    4.87080E+00    0.0588223332071733
  35    4.55422E+00    0.0549992119051450
  36    4.42875E+00    0.0534839423764130
  37    4.12910E+00    0.0498651376032742
  38    4.02257E+00    0.0485786850614443
  39    3.71949E+00    0.0449184855087301
  40    3.65727E+00    0.0441670704389805
  41    3.34003E+00    0.0403360175220434
  42    3.31096E+00    0.0399849447779754
  43    2.97267E+00    0.0358995619779424
  44    3.00931E+00    0.0363420283105846
  45    2.62835E+00    0.0317413822780690
  46    2.66237E+00    0.0321521192214189
  47    2.30302E+00    0.0278124964326032
  48    2.42784E+00    0.0293199118117728
  49    1.88184E+00    0.0227260436135030
  50    2.22129E+00    0.0268254810985029
  51    1.47590E+00    0.0178237650308915
  52    2.06534E+00    0.0249420956860182
  53    9.88213E-01    0.0119341799392365
  54    2.24324E+00    0.0270905101525606
