  # July 4, 2014 12:22:22
 # jmin,jmax    0   50
 # Eau     0.00200000
 # r0,ra,rb,rdel,tol,Bau,mu   3.5000  25.0000  25.0000   4.0000  1.0000E-03  3.0130E-07  6.8548E+03
 # parity bigJ  0  0        1  0        1  1        2  0        2  1        2  2        3  0        3  1        3  2        3  3
 # jmin,jmax,maxlamb are            0          50         100
 # j and jp are          32          48
 # lam  B-lambda(j,jp)  angle
#   16     24.3329      5.7682
#   17      1.7565     10.2148
#   18      9.5304     13.4118
#   19      1.0572     16.1221
#   20      5.6650     18.5616
#   21      0.7649     20.8272
#   22      3.7253     22.9718
#   23      0.5392     25.0277
#   24      2.6765     27.0167
#   25      0.4296     28.9537
#   26      1.9956     30.8499
#   27      0.3563     32.7137
#   28      1.4740     34.5517
#   29      0.2896     36.3691
#   30      1.1567     38.1703
#   31      0.2365     39.9587
#   32      0.9719     41.7375
#   33      0.1927     43.5093
#   34      0.7538     45.2763
#   35      0.1521     47.0405
#   36      0.5594     48.8039
#   37      0.1134     50.5681
#   38      0.4435     52.3346
#   39      0.0770     54.1050
#   40      0.3612     55.8805
#   41      0.0445     57.6625
#   42      0.2748     59.4523
#   43      0.0213     61.2512
#   44      0.2230     63.0604
#   45      0.0101     64.8811
#   46      0.2132     66.7147
#   47      0.0058     68.5624
#   48      0.1670     70.4257
#   49      0.0030     72.3057
#   50      0.0824     74.2041
#   51      0.0013     76.1223
#   52      0.0259     78.0619
#   53      0.0006     80.0246
#   54      0.0076     82.0123
#   55      0.0002     84.0269
#   56      0.0026     86.0705
#   57      0.0000     88.1455
#   58      0.0006     90.2545
#   59      0.0000     92.4002
#   60      0.0001     94.5857
#   61      0.0000     96.8146
#   62      0.0001     99.0907
#   63      0.0000    101.4184
#   64      0.0000    103.8028
#   65      0.0000    106.2498
#   66      0.0000    108.7660
#   67      0.0000    111.3595
#   68      0.0000    114.0395
#   69      0.0000    116.8174
#   70      0.0000    119.7070
#   71      0.0000    122.7256
#   72      0.0000    125.8950
#   73      0.0000    129.2439
#   74      0.0000    132.8106
#   75      0.0000    136.6494
#   76      0.0000    140.8405
#   77      0.0000    145.5124
#   78      0.0000    150.8965
#   79      0.0000    157.4985
#   80      0.0000    167.0668
   0    3.19659E+01    1.0000000000000000
   1    2.86851E+01    0.8973651329317111
   2    2.35934E+01    0.7380803756258896
   3    1.85651E+01    0.5807777807530962
   4    1.47230E+01    0.4605839087171415
   5    1.21200E+01    0.3791533400901472
   6    1.02655E+01    0.3211393657359303
   7    8.77494E+00    0.2745095667308823
   8    7.56050E+00    0.2365177156136651
   9    6.62872E+00    0.2073685666183112
  10    5.90120E+00    0.1846093908276709
  11    5.26253E+00    0.1646294494287855
  12    4.68259E+00    0.1464869476026583
  13    4.21316E+00    0.1318017421796943
  14    3.87951E+00    0.1213641067036207
  15    3.62660E+00    0.1134522680608579
  16    3.38022E+00    0.1057446397674515
  17    3.12517E+00    0.0977657670705737
  18    2.89901E+00    0.0906906985846980
  19    2.72540E+00    0.0852596265488299
  20    2.58260E+00    0.0807922901042404
  21    2.43930E+00    0.0763093920201778
  22    2.29690E+00    0.0718547016903646
  23    2.17979E+00    0.0681910290209223
  24    2.09436E+00    0.0655185715486031
  25    2.01674E+00    0.0630905368914649
  26    1.92251E+00    0.0601424043276536
  27    1.81450E+00    0.0567637662112087
  28    1.71467E+00    0.0536405538220613
  29    1.63682E+00    0.0512052189367254
  30    1.57620E+00    0.0493087032065554
  31    1.52151E+00    0.0475977945220678
  32    1.46790E+00    0.0459208588234734
  33    1.41670E+00    0.0443190704169841
  34    1.36871E+00    0.0428177707373006
  35    1.32219E+00    0.0413625607327845
  36    1.27578E+00    0.0399105247039957
  37    1.23032E+00    0.0384884954740461
  38    1.18748E+00    0.0371485033767461
  39    1.14770E+00    0.0359038838008507
  40    1.10995E+00    0.0347229875474597
  41    1.07292E+00    0.0335646566991563
  42    1.03602E+00    0.0324102906994237
  43    9.99311E-01    0.0312617847417681
  44    9.63287E-01    0.0301348481693195
  45    9.28293E-01    0.0290401216776471
  46    8.94568E-01    0.0279850709620217
  47    8.62157E-01    0.0269711744540747
  48    8.31043E-01    0.0259978070334887
  49    8.00304E-01    0.0250361918180347
  50    7.70790E-01    0.0241128821763270
  51    7.41785E-01    0.0232055164925689
  52    7.11028E-01    0.0222433251295191
  53    6.85199E-01    0.0214353121463406
  54    6.70554E-01    0.0209771862239499
  55    6.46169E-01    0.0202143292713080
  56    6.20667E-01    0.0194165326048416
  57    6.20508E-01    0.0194115568530532
  58    5.97686E-01    0.0186976066001186
  59    4.91812E-01    0.0153855199738090
  60    5.81626E-01    0.0181952083271239
  61    3.92154E-01    0.0122678854466259
  62    6.03801E-01    0.0188889155705154
  63    3.31276E-01    0.0103634304625938
  64    7.04468E-01    0.0220381219540209
