  # July 4, 2014 12:22:22
 # jmin,jmax    0   50
 # Eau     0.00200000
 # r0,ra,rb,rdel,tol,Bau,mu   3.5000  25.0000  25.0000   4.0000  1.0000E-03  3.0130E-07  6.8548E+03
 # parity bigJ  0  0        1  0        1  1        2  0        2  1        2  2        3  0        3  1        3  2        3  3
 # jmin,jmax,maxlamb are            0          50         100
 # j and jp are          22          39
 # lam  B-lambda(j,jp)  angle
#   17     31.9212      7.9128
#   18      1.1446     14.0182
#   19     13.5940     18.4077
#   20      0.7213     22.1313
#   21      8.0411     25.4866
#   22      0.4415     28.6070
#   23      4.9548     31.5661
#   24      0.2870     34.4091
#   25      3.5050     37.1663
#   26      0.2089     39.8593
#   27      2.6659     42.5039
#   28      0.1577     45.1126
#   29      2.0731     47.6951
#   30      0.1139     50.2597
#   31      1.6077     52.8131
#   32      0.0810     55.3613
#   33      1.2678     57.9096
#   34      0.0603     60.4628
#   35      1.0425     63.0255
#   36      0.0462     65.6019
#   37      0.8734     68.1962
#   38      0.0345     70.8126
#   39      0.7479     73.4553
#   40      0.0244     76.1288
#   41      0.6142     78.8374
#   42      0.0161     81.5862
#   43      0.4343     84.3805
#   44      0.0104     87.2259
#   45      0.2770     90.1290
#   46      0.0067     93.0970
#   47      0.1882     96.1382
#   48      0.0042     99.2622
#   49      0.1256    102.4803
#   50      0.0025    105.8060
#   51      0.0784    109.2557
#   52      0.0014    112.8495
#   53      0.0578    116.6133
#   54      0.0006    120.5803
#   55      0.0405    124.7956
#   56      0.0002    129.3222
#   57      0.0181    134.2537
#   58      0.0000    139.7399
#   59      0.0044    146.0501
#   60      0.0000    153.7741
#   61      0.0008    164.9538
   0    5.66625E+01    1.0000000000000000
   1    4.62504E+01    0.8162436356992621
   2    3.40216E+01    0.6004255801658044
   3    2.55050E+01    0.4501210804709052
   4    2.02275E+01    0.3569823782172876
   5    1.64219E+01    0.2898192954934020
   6    1.32992E+01    0.2347087991052729
   7    1.09045E+01    0.1924474523396624
   8    9.29668E+00    0.1640712379636239
   9    8.11831E+00    0.1432748885890334
  10    7.12252E+00    0.1257008707886215
  11    6.32338E+00    0.1115973006282069
  12    5.76059E+00    0.1016649841568101
  13    5.38993E+00    0.0951234052148794
  14    5.09898E+00    0.0899887085177138
  15    4.79832E+00    0.0846825215916787
  16    4.52834E+00    0.0799177352742056
  17    4.29032E+00    0.0757171716447882
  18    4.06019E+00    0.0716556757388419
  19    3.80982E+00    0.0672370759076247
  20    3.60549E+00    0.0636310393994306
  21    3.40871E+00    0.0601582297881517
  22    3.26110E+00    0.0575531464395592
  23    3.08168E+00    0.0543865419309843
  24    2.97347E+00    0.0524769433458477
  25    2.81656E+00    0.0497076804432562
  26    2.75196E+00    0.0485676407958247
  27    2.60454E+00    0.0459658445999157
  28    2.55816E+00    0.0451472693364498
  29    2.40647E+00    0.0424702817619961
  30    2.36427E+00    0.0417255723223257
  31    2.19947E+00    0.0388171248308454
  32    2.17110E+00    0.0383163831596856
  33    1.97039E+00    0.0347740974493891
  34    1.97784E+00    0.0349056795389078
  35    1.73404E+00    0.0306029119573923
  36    1.78668E+00    0.0315319577250528
  37    1.51153E+00    0.0266760890571518
  38    1.65013E+00    0.0291220539650586
  39    1.24662E+00    0.0220008067820688
  40    1.62281E+00    0.0286399255418046
  41    9.88455E-01    0.0174446109631208
  42    1.69787E+00    0.0299645730305318
  43    7.67802E-01    0.0135504415257407
  44    2.06781E+00    0.0364934257427744
