  # July 4, 2014 12:22:22
 # jmin,jmax    0   50
 # Eau     0.00200000
 # r0,ra,rb,rdel,tol,Bau,mu   3.5000  25.0000  25.0000   4.0000  1.0000E-03  3.0130E-07  6.8548E+03
 # parity bigJ  0  0        1  0        1  1        2  0        2  1        2  2        3  0        3  1        3  2        3  3
 # jmin,jmax,maxlamb are            0          50         100
 # j and jp are          23          25
 # lam  B-lambda(j,jp)  angle
#    2   2753.6652      3.3098
#    3     51.1925      6.6245
#    4    329.7140      9.3741
#    5     14.6632     11.9583
#    6     99.3412     14.4693
#    7      4.0951     16.9429
#    8     39.4820     19.3970
#    9      1.3904     21.8417
#   10     18.7684     24.2837
#   11      0.6250     26.7274
#   12      9.7856     29.1764
#   13      0.3488     31.6335
#   14      5.6883     34.1013
#   15      0.2169     36.5819
#   16      3.6722     39.0774
#   17      0.1446     41.5900
#   18      2.5801     44.1216
#   19      0.1070     46.6743
#   20      1.9243     49.2503
#   21      0.0832     51.8518
#   22      1.5747     54.4813
#   23      0.0668     57.1411
#   24      1.2860     59.8341
#   25      0.0551     62.5633
#   26      1.1120     65.3318
#   27      0.0458     68.1432
#   28      0.9883     71.0015
#   29      0.0377     73.9111
#   30      0.8403     76.8768
#   31      0.0308     79.9043
#   32      0.7002     83.0000
#   33      0.0248     86.1710
#   34      0.6432     89.4261
#   35      0.0192     92.7750
#   36      0.5525     96.2297
#   37      0.0146     99.8043
#   38      0.3905    103.5164
#   39      0.0110    107.3875
#   40      0.3029    111.4451
#   41      0.0080    115.7253
#   42      0.2787    120.2766
#   43      0.0055    125.1669
#   44      0.2619    130.4976
#   45      0.0034    136.4308
#   46      0.2863    143.2579
#   47      0.0017    151.6184
#   48      0.4284    163.7264
   0    4.30320E+02    1.0000000000000000
   1    4.11378E+02    0.9559806823294926
   2    3.96247E+02    0.9208191251751815
   3    3.79775E+02    0.8825414218903335
   4    3.65061E+02    0.8483470439796357
   5    3.48203E+02    0.8091715282490445
   6    3.32402E+02    0.7724535930911326
   7    3.16177E+02    0.7347480424866546
   8    3.01398E+02    0.7004040203135937
   9    2.86378E+02    0.6654991394742601
  10    2.72873E+02    0.6341163720163938
  11    2.59403E+02    0.6028133507340276
  12    2.47191E+02    0.5744360616421015
  13    2.34973E+02    0.5460413473061210
  14    2.24063E+02    0.5206880846158470
  15    2.13105E+02    0.4952241556408474
  16    2.03182E+02    0.4721651972868653
  17    1.93236E+02    0.4490516193330285
  18    1.84317E+02    0.4283240761898395
  19    1.75280E+02    0.4073254980162768
  20    1.67142E+02    0.3884124745713173
  21    1.58859E+02    0.3691640257711991
  22    1.51457E+02    0.3519643691378688
  23    1.43846E+02    0.3342759804521429
  24    1.37074E+02    0.3185401707238681
  25    1.30029E+02    0.3021675233822702
  26    1.23764E+02    0.2876082125909182
  27    1.17183E+02    0.2723153380716541
  28    1.11375E+02    0.2588191564417093
  29    1.05151E+02    0.2443563628767305
  30    9.98273E+01    0.2319836974920647
  31    9.38173E+01    0.2180173601205939
  32    8.89296E+01    0.2066592011028972
  33    8.31343E+01    0.1931916165420847
  34    7.86165E+01    0.1826930486448107
  35    7.30681E+01    0.1697993750119580
  36    6.88929E+01    0.1600967235643686
  37    6.34489E+01    0.1474457442082834
  38    5.96443E+01    0.1386045035111259
  39    5.42504E+01    0.1260698975843969
  40    5.07318E+01    0.1178931967793664
  41    4.52192E+01    0.1050825814616951
  42    4.19583E+01    0.0975047444621325
  43    3.60708E+01    0.0838231710682309
  44    3.32107E+01    0.0771767199878334
  45    2.60276E+01    0.0604841504507143
  46    2.48148E+01    0.0576657752908907
