  # July 4, 2014 12:22:22
 # jmin,jmax    0   50
 # Eau     0.00200000
 # r0,ra,rb,rdel,tol,Bau,mu   3.5000  25.0000  25.0000   4.0000  1.0000E-03  3.0130E-07  6.8548E+03
 # parity bigJ  0  0        1  0        1  1        2  0        2  1        2  2        3  0        3  1        3  2        3  3
 # jmin,jmax,maxlamb are            0          50         100
 # j and jp are          28          49
 # lam  B-lambda(j,jp)  angle
#   21     23.8829      6.9825
#   22      1.9523     12.3161
#   23     11.2200     16.1207
#   24      0.9831     19.3239
#   25      7.5652     22.1897
#   26      0.5269     24.8372
#   27      5.4796     27.3319
#   28      0.2752     29.7140
#   29      4.1445     32.0106
#   30      0.1605     34.2408
#   31      3.2767     36.4186
#   32      0.1118     38.5547
#   33      2.6800     40.6576
#   34      0.0837     42.7340
#   35      2.2525     44.7897
#   36      0.0629     46.8294
#   37      1.8625     48.8570
#   38      0.0454     50.8761
#   39      1.3608     52.8899
#   40      0.0308     54.9011
#   41      0.8399     56.9124
#   42      0.0200     58.9261
#   43      0.4574     60.9445
#   44      0.0122     62.9697
#   45      0.2188     65.0039
#   46      0.0071     67.0490
#   47      0.0926     69.1072
#   48      0.0043     71.1804
#   49      0.0526     73.2708
#   50      0.0025     75.3804
#   51      0.0403     77.5116
#   52      0.0011     79.6667
#   53      0.0220     81.8481
#   54      0.0003     84.0585
#   55      0.0065     86.3008
#   56      0.0001     88.5781
#   57      0.0010     90.8937
#   58      0.0000     93.2515
#   59      0.0001     95.6556
#   60      0.0000     98.1108
#   61      0.0001    100.6225
#   62      0.0000    103.1967
#   63      0.0000    105.8405
#   64      0.0000    108.5623
#   65      0.0000    111.3719
#   66      0.0000    114.2811
#   67      0.0000    117.3042
#   68      0.0000    120.4593
#   69      0.0000    123.7691
#   70      0.0000    127.2631
#   71      0.0000    130.9814
#   72      0.0000    134.9801
#   73      0.0000    139.3424
#   74      0.0000    144.2018
#   75      0.0000    149.7979
#   76      0.0000    156.6556
#   77      0.0000    166.5891
   0    4.85525E+01    1.0000000000000000
   1    4.25917E+01    0.8772305494486132
   2    3.31625E+01    0.6830232311475448
   3    2.36700E+01    0.4875138009028567
   4    1.65428E+01    0.3407204881099056
   5    1.23598E+01    0.2545652113941510
   6    1.02834E+01    0.2117992267378349
   7    9.09565E+00    0.1873363920076232
   8    7.99041E+00    0.1645724702442010
   9    6.77970E+00    0.1396364327547545
  10    5.66380E+00    0.1166530158984612
  11    4.87702E+00    0.1004483296580177
  12    4.45794E+00    0.0918169869689702
  13    4.24876E+00    0.0875085874446549
  14    4.05674E+00    0.0835535659923255
  15    3.79993E+00    0.0782643354842022
  16    3.51427E+00    0.0723808699375051
  17    3.26235E+00    0.0671921050408718
  18    3.06586E+00    0.0631452974654051
  19    2.91172E+00    0.0599705225630420
  20    2.78336E+00    0.0573267847333419
  21    2.66910E+00    0.0549735251483080
  22    2.55711E+00    0.0526669502158143
  23    2.44118E+00    0.0502790855014232
  24    2.32915E+00    0.0479717123172638
  25    2.23529E+00    0.0460387072893637
  26    2.16382E+00    0.0445665218543514
  27    2.10500E+00    0.0433551963179981
  28    2.04689E+00    0.0421582862463839
  29    1.98595E+00    0.0409031811068428
  30    1.92619E+00    0.0396723520423094
  31    1.87196E+00    0.0385553592558332
  32    1.82394E+00    0.0375664422809290
  33    1.78029E+00    0.0366672328357923
  34    1.73911E+00    0.0358191906165496
  35    1.69957E+00    0.0350048529487215
  36    1.66156E+00    0.0342219728895525
  37    1.62511E+00    0.0334712063640176
  38    1.59024E+00    0.0327529497320406
  39    1.55676E+00    0.0320634025291139
  40    1.52459E+00    0.0314008872629862
  41    1.49336E+00    0.0307576295446922
  42    1.46282E+00    0.0301285811931572
  43    1.43263E+00    0.0295067541383849
  44    1.40240E+00    0.0288841471175568
  45    1.37178E+00    0.0282535187432528
  46    1.34262E+00    0.0276530074000692
  47    1.31394E+00    0.0270622739945038
  48    1.28621E+00    0.0264910290733102
  49    1.27138E+00    0.0261857091822750
  50    1.25257E+00    0.0257983083917819
  51    1.20005E+00    0.0247165842293191
  52    1.19941E+00    0.0247033911744771
  53    1.16038E+00    0.0238994454359755
  54    1.23901E+00    0.0255190269967481
  55    1.30665E+00    0.0269120349345315
  56    1.63111E+00    0.0335947827681466
