  # July 4, 2014 12:22:22
 # jmin,jmax    0   50
 # Eau     0.00200000
 # r0,ra,rb,rdel,tol,Bau,mu   3.5000  25.0000  25.0000   4.0000  1.0000E-03  3.0130E-07  6.8548E+03
 # parity bigJ  0  0        1  0        1  1        2  0        2  1        2  2        3  0        3  1        3  2        3  3
 # jmin,jmax,maxlamb are            0          50         100
 # j and jp are          29          44
 # lam  B-lambda(j,jp)  angle
#   15     44.7617      6.1194
#   16      4.3305     10.8537
#   17     19.3809     14.2668
#   18      2.3758     17.1678
#   19     11.6264     19.7853
#   20      1.6500     22.2214
#   21      7.5605     24.5321
#   22      1.1583     26.7515
#   23      5.4300     28.9026
#   24      0.8680     31.0012
#   25      3.8796     33.0590
#   26      0.6579     35.0851
#   27      2.7700     37.0864
#   28      0.5077     39.0684
#   29      2.0465     41.0359
#   30      0.3912     42.9927
#   31      1.6380     44.9421
#   32      0.2817     46.8870
#   33      1.4018     48.8299
#   34      0.1842     50.7732
#   35      1.1543     52.7190
#   36      0.1111     54.6693
#   37      0.9888     56.6258
#   38      0.0638     58.5905
#   39      0.8825     60.5650
#   40      0.0381     62.5509
#   41      0.6488     64.5501
#   42      0.0256     66.5642
#   43      0.3769     68.5950
#   44      0.0174     70.6442
#   45      0.2249     72.7136
#   46      0.0106     74.8053
#   47      0.1421     76.9213
#   48      0.0061     79.0637
#   49      0.0826     81.2349
#   50      0.0034     83.4375
#   51      0.0570     85.6741
#   52      0.0017     87.9478
#   53      0.0388     90.2619
#   54      0.0006     92.6202
#   55      0.0163     95.0267
#   56      0.0001     97.4862
#   57      0.0034    100.0040
#   58      0.0000    102.5862
#   59      0.0004    105.2399
#   60      0.0000    107.9735
#   61      0.0001    110.7967
#   62      0.0000    113.7216
#   63      0.0001    116.7625
#   64      0.0000    119.9375
#   65      0.0001    123.2697
#   66      0.0000    126.7888
#   67      0.0000    130.5352
#   68      0.0000    134.5656
#   69      0.0000    138.9641
#   70      0.0000    143.8652
#   71      0.0000    149.5112
#   72      0.0000    156.4320
#   73      0.0000    166.4599
   0    6.44251E+01    1.0000000000000000
   1    5.70776E+01    0.8859516348667329
   2    4.60280E+01    0.7144413210180086
   3    3.55789E+01    0.5522518526481757
   4    2.78812E+01    0.4327687403456232
   5    2.26785E+01    0.3520128591692196
   6    1.88496E+01    0.2925814390403839
   7    1.56789E+01    0.2433662371268238
   8    1.30392E+01    0.2023932400562983
   9    1.10270E+01    0.1711592338099171
  10    9.64343E+00    0.1496842831466459
  11    8.69382E+00    0.1349445371919480
  12    7.90784E+00    0.1227445983151358
  13    7.14765E+00    0.1109450119859036
  14    6.45782E+00    0.1002375305807868
  15    5.91550E+00    0.0918197929686446
  16    5.50590E+00    0.0854620415224345
  17    5.15854E+00    0.0800703132741890
  18    4.83368E+00    0.0750278321449222
  19    4.53936E+00    0.0704594583035643
  20    4.30025E+00    0.0667479570778006
  21    4.12577E+00    0.0640397335516459
  22    3.98920E+00    0.0619199866429936
  23    3.84088E+00    0.0596176719907897
  24    3.65884E+00    0.0567920609800890
  25    3.47297E+00    0.0539070812072194
  26    3.32351E+00    0.0515871592420407
  27    3.21164E+00    0.0498507182160693
  28    3.10830E+00    0.0482467597604476
  29    2.99569E+00    0.0464987938385915
  30    2.88239E+00    0.0447401835471077
  31    2.78314E+00    0.0431995175620586
  32    2.70137E+00    0.0419304121749561
  33    2.62981E+00    0.0408195931049530
  34    2.56116E+00    0.0397539981402017
  35    2.49159E+00    0.0386742479094911
  36    2.42048E+00    0.0375705001984917
  37    2.34787E+00    0.0364433126224519
  38    2.27404E+00    0.0352974509229862
  39    2.19880E+00    0.0341296028017035
  40    2.12313E+00    0.0329550415868069
  41    2.04604E+00    0.0317583417759845
  42    1.96800E+00    0.0305471271754310
  43    1.89330E+00    0.0293876091388651
  44    1.81535E+00    0.0281777392631880
  45    1.74271E+00    0.0270501852487135
  46    1.68900E+00    0.0262165161848408
  47    1.60231E+00    0.0248708736028742
  48    1.58110E+00    0.0245417066735907
  49    1.50210E+00    0.0233154385606409
  50    1.47990E+00    0.0229707947230089
  51    1.34922E+00    0.0209424756894749
  52    1.40431E+00    0.0217976062954990
  53    1.28256E+00    0.0199078292082522
  54    1.31818E+00    0.0204606912175065
  55    9.80320E-01    0.0152164221232917
  56    1.38553E+00    0.0215060649887678
  57    5.19268E-01    0.0080600175069709
  58    1.69640E+00    0.0263313707597832
