  # July 4, 2014 12:22:22
 # jmin,jmax    0   50
 # Eau     0.00200000
 # r0,ra,rb,rdel,tol,Bau,mu   3.5000  25.0000  25.0000   4.0000  1.0000E-03  3.0130E-07  6.8548E+03
 # parity bigJ  0  0        1  0        1  1        2  0        2  1        2  2        3  0        3  1        3  2        3  3
 # jmin,jmax,maxlamb are            0          50         100
 # j and jp are          21          38
 # lam  B-lambda(j,jp)  angle
#   17     29.7170      8.1984
#   18      0.9736     14.5276
#   19     11.6775     19.0797
#   20      0.6229     22.9428
#   21      6.9565     26.4253
#   22      0.4637     29.6657
#   23      4.7209     32.7402
#   24      0.3404     35.6957
#   25      3.4419     38.5638
#   26      0.2348     41.3669
#   27      2.5783     44.1217
#   28      0.1633     46.8411
#   29      2.0442     49.5355
#   30      0.1182     52.2135
#   31      1.6115     54.8824
#   32      0.0846     57.5486
#   33      1.2611     60.2179
#   34      0.0601     62.8956
#   35      1.0331     65.5868
#   36      0.0438     68.2962
#   37      0.8695     71.0288
#   38      0.0321     73.7894
#   39      0.7491     76.5830
#   40      0.0227     79.4149
#   41      0.6230     82.2908
#   42      0.0150     85.2167
#   43      0.4509     88.1994
#   44      0.0095     91.2465
#   45      0.2913     94.3666
#   46      0.0060     97.5695
#   47      0.1978    100.8670
#   48      0.0038    104.2728
#   49      0.1358    107.8037
#   50      0.0022    111.4804
#   51      0.0866    115.3291
#   52      0.0012    119.3840
#   53      0.0644    123.6909
#   54      0.0005    128.3141
#   55      0.0492    133.3490
#   56      0.0002    138.9484
#   57      0.0266    145.3867
#   58      0.0000    153.2652
#   59      0.0108    164.6661
   0    5.49557E+01    1.0000000000000000
   1    4.34061E+01    0.7898388030457018
   2    3.09861E+01    0.5638385851637411
   3    2.29416E+01    0.4174568923544801
   4    1.82074E+01    0.3313102835323906
   5    1.48094E+01    0.2694791763358980
   6    1.20978E+01    0.2201371443582684
   7    1.01923E+01    0.1854632809458327
   8    8.94766E+00    0.1628158596026056
   9    7.89666E+00    0.1436914450649414
  10    6.98274E+00    0.1270612798146085
  11    6.21777E+00    0.1131415021259281
  12    5.69391E+00    0.1036091585077648
  13    5.24836E+00    0.0955015867944953
  14    4.84445E+00    0.0881520024940950
  15    4.43542E+00    0.0807090468412785
  16    4.15692E+00    0.0756412096490438
  17    3.86209E+00    0.0702763857366632
  18    3.65535E+00    0.0665144454164599
  19    3.40931E+00    0.0620373506250073
  20    3.27520E+00    0.0595970191670405
  21    3.05127E+00    0.0555222999892121
  22    2.93242E+00    0.0533596921006598
  23    2.71502E+00    0.0494038695507444
  24    2.63319E+00    0.0479148478782950
  25    2.44705E+00    0.0445276823707264
  26    2.39879E+00    0.0436495750554809
  27    2.22085E+00    0.0404117292776825
  28    2.19572E+00    0.0399543482263662
  29    2.00117E+00    0.0364142582660540
  30    2.01504E+00    0.0366666952603557
  31    1.79130E+00    0.0325954346154708
  32    1.85278E+00    0.0337140567914848
  33    1.60286E+00    0.0291663887209601
  34    1.72437E+00    0.0313774415500113
  35    1.42539E+00    0.0259370350409557
  36    1.67913E+00    0.0305542739404264
  37    1.19853E+00    0.0218090089119545
  38    1.67618E+00    0.0305005109656069
  39    9.56048E-01    0.0173967000604346
  40    1.74199E+00    0.0316981202508575
  41    7.72937E-01    0.0140647214941138
  42    2.16869E+00    0.0394625520481173
