  # July 4, 2014 12:22:22
 # jmin,jmax    0   50
 # Eau     0.00200000
 # r0,ra,rb,rdel,tol,Bau,mu   3.5000  25.0000  25.0000   4.0000  1.0000E-03  3.0130E-07  6.8548E+03
 # parity bigJ  0  0        1  0        1  1        2  0        2  1        2  2        3  0        3  1        3  2        3  3
 # jmin,jmax,maxlamb are            0          50         100
 # j and jp are          26          44
 # lam  B-lambda(j,jp)  angle
#   18     15.1139      7.0706
#   19      1.4150     12.5044
#   20      5.3762     16.3997
#   21      1.0471     19.6944
#   22      3.2259     22.6547
#   23      0.7800     25.4001
#   24      2.3816     27.9964
#   25      0.5964     30.4838
#   26      1.9894     32.8895
#   27      0.4619     35.2325
#   28      1.5625     37.5268
#   29      0.3585     39.7833
#   30      1.1964     42.0103
#   31      0.2769     44.2148
#   32      0.9894     46.4025
#   33      0.2073     48.5782
#   34      0.7460     50.7461
#   35      0.1449     52.9098
#   36      0.5270     55.0728
#   37      0.0934     57.2379
#   38      0.3966     59.4080
#   39      0.0560     61.5859
#   40      0.2957     63.7740
#   41      0.0320     65.9749
#   42      0.2504     68.1911
#   43      0.0189     70.4251
#   44      0.2068     72.6794
#   45      0.0124     74.9567
#   46      0.1388     77.2597
#   47      0.0082     79.5914
#   48      0.1107     81.9549
#   49      0.0045     84.3535
#   50      0.0923     86.7908
#   51      0.0020     89.2710
#   52      0.0495     91.7984
#   53      0.0007     94.3781
#   54      0.0170     97.0157
#   55      0.0003     99.7176
#   56      0.0061    102.4913
#   57      0.0001    105.3455
#   58      0.0022    108.2905
#   59      0.0000    111.3386
#   60      0.0004    114.5049
#   61      0.0000    117.8080
#   62      0.0001    121.2718
#   63      0.0000    124.9272
#   64      0.0001    128.8159
#   65      0.0000    132.9965
#   66      0.0001    137.5558
#   67      0.0000    142.6330
#   68      0.0000    148.4783
#   69      0.0000    155.6395
#   70      0.0000    166.0110
   0    2.72618E+01    1.0000000000000000
   1    2.31213E+01    0.8481206103609971
   2    1.73327E+01    0.6357887453968671
   3    1.24512E+01    0.4567268216008431
   4    9.29167E+00    0.3408315504367316
   5    7.37449E+00    0.2705065626498784
   6    6.15914E+00    0.2259261530518570
   7    5.40071E+00    0.1981058804230832
   8    4.88366E+00    0.1791395278861614
   9    4.39355E+00    0.1611615708350910
  10    3.88366E+00    0.1424580256534405
  11    3.42957E+00    0.1258014301491197
  12    3.06423E+00    0.1124002152526911
  13    2.75993E+00    0.1012379722740317
  14    2.50314E+00    0.0918188710388801
  15    2.29104E+00    0.0840387366668022
  16    2.09692E+00    0.0769180251240224
  17    1.90541E+00    0.0698931073897006
  18    1.74668E+00    0.0640708680229223
  19    1.64284E+00    0.0602617292251310
  20    1.56344E+00    0.0573492493849923
  21    1.47241E+00    0.0540102318145491
  22    1.37605E+00    0.0504755809937200
  23    1.29064E+00    0.0473426703585493
  24    1.20766E+00    0.0442986798980832
  25    1.11600E+00    0.0409364114636140
  26    1.02911E+00    0.0377492474455933
  27    9.64867E-01    0.0353926982073542
  28    9.21132E-01    0.0337884287175779
  29    8.80934E-01    0.0323139102147036
  30    8.35425E-01    0.0306445597827864
  31    7.87085E-01    0.0288714096579530
  32    7.42077E-01    0.0272204491198640
  33    7.02514E-01    0.0257692223526214
  34    6.66494E-01    0.0244479473450693
  35    6.33152E-01    0.0232249301501520
  36    6.02065E-01    0.0220845944883055
  37    5.70401E-01    0.0209231095844773
  38    5.45896E-01    0.0200242458750484
  39    5.16667E-01    0.0189520796216404
  40    4.96518E-01    0.0182129998185224
  41    4.80075E-01    0.0176098408084144
  42    4.70214E-01    0.0172481263178032
  43    4.47138E-01    0.0164016644055905
  44    5.12197E-01    0.0187881005417816
  45    4.49432E-01    0.0164858187351016
  46    5.23366E-01    0.0191978131558703
  47    4.25492E-01    0.0156076486886909
  48    5.32866E-01    0.0195462880231517
  49    3.68342E-01    0.0135113035908656
  50    5.89064E-01    0.0216076901822650
  51    3.45479E-01    0.0126726448502067
  52    7.23171E-01    0.0265269200361995
