  # July 4, 2014 12:22:22
 # jmin,jmax    0   50
 # Eau     0.00200000
 # r0,ra,rb,rdel,tol,Bau,mu   3.5000  25.0000  25.0000   4.0000  1.0000E-03  3.0130E-07  6.8548E+03
 # parity bigJ  0  0        1  0        1  1        2  0        2  1        2  2        3  0        3  1        3  2        3  3
 # jmin,jmax,maxlamb are            0          50         100
 # j and jp are          17          44
 # lam  B-lambda(j,jp)  angle
#   27     10.9010     10.6400
#   28      0.1726     18.7670
#   29      4.6268     24.5529
#   30      0.1379     29.4207
#   31      2.7680     33.7767
#   32      0.1070     37.8052
#   33      1.9231     41.6081
#   34      0.0763     45.2493
#   35      1.5205     48.7719
#   36      0.0513     52.2071
#   37      1.2538     55.5786
#   38      0.0345     58.9052
#   39      1.0389     62.2023
#   40      0.0238     65.4830
#   41      0.7527     68.7591
#   42      0.0161     72.0413
#   43      0.4317     75.3396
#   44      0.0100     78.6641
#   45      0.2429     82.0245
#   46      0.0056     85.4314
#   47      0.1693     88.8958
#   48      0.0031     92.4298
#   49      0.1111     96.0471
#   50      0.0017     99.7635
#   51      0.0699    103.5977
#   52      0.0009    107.5722
#   53      0.0519    111.7155
#   54      0.0004    116.0638
#   55      0.0318    120.6659
#   56      0.0001    125.5896
#   57      0.0115    130.9352
#   58      0.0000    136.8628
#   59      0.0023    143.6601
#   60      0.0000    151.9575
#   61      0.0005    163.9388
   0    2.99068E+01    1.0000000000000000
   1    2.32912E+01    0.7787946222778406
   2    1.54451E+01    0.5164398115169890
   3    1.02116E+01    0.3414489400990924
   4    7.63937E+00    0.2554392857307660
   5    6.45598E+00    0.2158701128946610
   6    5.58786E+00    0.1868424943287344
   7    4.62164E+00    0.1545348817666077
   8    3.78000E+00    0.1263925736376751
   9    3.26683E+00    0.1092336505770206
  10    3.01016E+00    0.1006513631437370
  11    2.83283E+00    0.0947220893457893
  12    2.61139E+00    0.0873176802144353
  13    2.36363E+00    0.0790333595932233
  14    2.18668E+00    0.0731165061968599
  15    2.07250E+00    0.0692985139911390
  16    1.95723E+00    0.0654443177262386
  17    1.81531E+00    0.0606988859654859
  18    1.69334E+00    0.0566207423570325
  19    1.58366E+00    0.0529531998029053
  20    1.50583E+00    0.0503507693177174
  21    1.40454E+00    0.0469638972791852
  22    1.34334E+00    0.0449177116800867
  23    1.23248E+00    0.0412106040308687
  24    1.19406E+00    0.0399260323286098
  25    1.07292E+00    0.0358755156433364
  26    1.05842E+00    0.0353906819372752
  27    9.39669E-01    0.0314199081256855
  28    9.50723E-01    0.0317895454728318
  29    8.36538E-01    0.0279715168027764
  30    9.18222E-01    0.0307027968313239
  31    7.32978E-01    0.0245087620690679
  32    8.97534E-01    0.0300110475432366
  33    7.56381E-01    0.0252912821759088
  34    1.34489E+00    0.0449693780720622
