  # July 4, 2014 12:22:22
 # jmin,jmax    0   50
 # Eau     0.00200000
 # r0,ra,rb,rdel,tol,Bau,mu   3.5000  25.0000  25.0000   4.0000  1.0000E-03  3.0130E-07  6.8548E+03
 # parity bigJ  0  0        1  0        1  1        2  0        2  1        2  2        3  0        3  1        3  2        3  3
 # jmin,jmax,maxlamb are            0          50         100
 # j and jp are          26          50
 # lam  B-lambda(j,jp)  angle
#   24      9.6966      7.6623
#   25      0.4545     13.4961
#   26      4.2024     17.6450
#   27      0.2598     21.1287
#   28      2.8305     24.2384
#   29      0.1655     27.1053
#   30      2.0526     29.8020
#   31      0.1136     32.3732
#   32      1.4482     34.8490
#   33      0.0854     37.2506
#   34      0.9891     39.5936
#   35      0.0683     41.8903
#   36      0.7334     44.1501
#   37      0.0553     46.3807
#   38      0.6143     48.5886
#   39      0.0441     50.7791
#   40      0.5095     52.9569
#   41      0.0338     55.1261
#   42      0.3921     57.2905
#   43      0.0244     59.4532
#   44      0.2949     61.6175
#   45      0.0161     63.7862
#   46      0.2176     65.9621
#   47      0.0090     68.1479
#   48      0.1343     70.3462
#   49      0.0041     72.5596
#   50      0.0579     74.7909
#   51      0.0015     77.0427
#   52      0.0172     79.3180
#   53      0.0006     81.6195
#   54      0.0057     83.9506
#   55      0.0002     86.3146
#   56      0.0027     88.7152
#   57      0.0000     91.1563
#   58      0.0009     93.6425
#   59      0.0000     96.1786
#   60      0.0002     98.7702
#   61      0.0000    101.4238
#   62      0.0000    104.1466
#   63      0.0000    106.9473
#   64      0.0000    109.8358
#   65      0.0000    112.8244
#   66      0.0000    115.9277
#   67      0.0000    119.1642
#   68      0.0000    122.5570
#   69      0.0000    126.1364
#   70      0.0000    129.9433
#   71      0.0000    134.0348
#   72      0.0000    138.4960
#   73      0.0000    143.4628
#   74      0.0000    149.1798
#   75      0.0000    156.1823
#   76      0.0000    166.3216
   0    2.01049E+01    1.0000000000000000
   1    1.74403E+01    0.8674634215421951
   2    1.34070E+01    0.6668511766660167
   3    9.63007E+00    0.4789902770239362
   4    7.02441E+00    0.3493872688174672
   5    5.52582E+00    0.2748489135504613
   6    4.59454E+00    0.2285280226791478
   7    3.83469E+00    0.1907334571681193
   8    3.19035E+00    0.1586847752190885
   9    2.74710E+00    0.1366378500510982
  10    2.50549E+00    0.1246204053637478
  11    2.35977E+00    0.1173726145777730
  12    2.21238E+00    0.1100415821211535
  13    2.04431E+00    0.1016820540650278
  14    1.88135E+00    0.0935764209998875
  15    1.73509E+00    0.0863017085800270
  16    1.59638E+00    0.0794024713624249
  17    1.46530E+00    0.0728827523435967
  18    1.35912E+00    0.0676014792901470
  19    1.28782E+00    0.0640547029054979
  20    1.23777E+00    0.0615653818766333
  21    1.18689E+00    0.0590345064953062
  22    1.12738E+00    0.0560747226160525
  23    1.06731E+00    0.0530868566696286
  24    1.01555E+00    0.0505122987371655
  25    9.72658E-01    0.0483790325188723
  26    9.34667E-01    0.0464893992485744
  27    8.99286E-01    0.0447295848282701
  28    8.66669E-01    0.0431072511484177
  29    8.37049E-01    0.0416339617343922
  30    8.09847E-01    0.0402809802341554
  31    7.84417E-01    0.0390161142162268
  32    7.60644E-01    0.0378336799503521
  33    7.38605E-01    0.0367374946604747
  34    7.18277E-01    0.0357263808102028
  35    6.99369E-01    0.0347859030532370
  36    6.81618E-01    0.0339030099847081
  37    6.64756E-01    0.0330643005805747
  38    6.48624E-01    0.0322619043328608
  39    6.32947E-01    0.0314821563611335
  40    6.17533E-01    0.0307154746518829
  41    6.01587E-01    0.0299223338259147
  42    5.84418E-01    0.0290683448973074
  43    5.65060E-01    0.0281055227290399
  44    5.40675E-01    0.0268926115435110
  45    5.11205E-01    0.0254268127802179
  46    4.81919E-01    0.0239701772079028
  47    4.38651E-01    0.0218180720384994
  48    3.96315E-01    0.0197123298322982
  49    3.80695E-01    0.0189353962102990
  50    3.90408E-01    0.0194185277550305
  51    3.05939E-01    0.0152171197131394
  52    5.50545E-01    0.0273835774950918
