  # July 4, 2014 12:22:22
 # jmin,jmax    0   50
 # Eau     0.00200000
 # r0,ra,rb,rdel,tol,Bau,mu   3.5000  25.0000  25.0000   4.0000  1.0000E-03  3.0130E-07  6.8548E+03
 # parity bigJ  0  0        1  0        1  1        2  0        2  1        2  2        3  0        3  1        3  2        3  3
 # jmin,jmax,maxlamb are            0          50         100
 # j and jp are          32          49
 # lam  B-lambda(j,jp)  angle
#   17     39.5855      5.8851
#   18      3.6440     10.4104
#   19     18.5904     13.6571
#   20      2.6749     16.4044
#   21     12.7165     18.8733
#   22      1.8118     21.1627
#   23      9.6526     23.3270
#   24      0.8887     25.3995
#   25      7.0543     27.4024
#   26      0.4484     29.3512
#   27      5.3107     31.2573
#   28      0.2582     33.1295
#   29      4.1590     34.9744
#   30      0.1694     36.7975
#   31      3.3848     38.6033
#   32      0.1213     40.3955
#   33      2.8351     42.1771
#   34      0.0895     43.9508
#   35      2.4317     45.7192
#   36      0.0664     47.4841
#   37      1.9960     49.2476
#   38      0.0478     51.0114
#   39      1.4079     52.7769
#   40      0.0327     54.5458
#   41      0.8445     56.3195
#   42      0.0216     58.0992
#   43      0.4530     59.8864
#   44      0.0133     61.6822
#   45      0.2081     63.4880
#   46      0.0079     65.3051
#   47      0.0880     67.1347
#   48      0.0048     68.9781
#   49      0.0568     70.8368
#   50      0.0027     72.7120
#   51      0.0420     74.6052
#   52      0.0011     76.5180
#   53      0.0194     78.4520
#   54      0.0003     80.4088
#   55      0.0047     82.3903
#   56      0.0000     84.3986
#   57      0.0006     86.4356
#   58      0.0000     88.5037
#   59      0.0001     90.6056
#   60      0.0000     92.7439
#   61      0.0000     94.9218
#   62      0.0000     97.1427
#   63      0.0000     99.4106
#   64      0.0000    101.7299
#   65      0.0000    104.1055
#   66      0.0000    106.5434
#   67      0.0000    109.0501
#   68      0.0000    111.6337
#   69      0.0000    114.3035
#   70      0.0000    117.0706
#   71      0.0000    119.9491
#   72      0.0000    122.9559
#   73      0.0000    126.1128
#   74      0.0000    129.4484
#   75      0.0000    133.0010
#   76      0.0000    136.8245
#   77      0.0000    140.9988
#   78      0.0000    145.6520
#   79      0.0000    151.0142
#   80      0.0000    157.5896
#   81      0.0000    167.1189
   0    6.78485E+01    1.0000000000000000
   1    6.06824E+01    0.8943813417322719
   2    4.90259E+01    0.7225794637812986
   3    3.66932E+01    0.5408114179596882
   4    2.66800E+01    0.3932292601587048
   5    2.00638E+01    0.2957145755010950
   6    1.62203E+01    0.2390671715568482
   7    1.38417E+01    0.2040088076147898
   8    1.18967E+01    0.1753420672502009
   9    1.00192E+01    0.1476708393081618
  10    8.34857E+00    0.1230471996348877
  11    7.14399E+00    0.1052933290872555
  12    6.48521E+00    0.0955837213536344
  13    6.20642E+00    0.0914747682886154
  14    6.03456E+00    0.0889416799820369
  15    5.77999E+00    0.0851897380964359
  16    5.42211E+00    0.0799150425498450
  17    5.04735E+00    0.0743914880054516
  18    4.73160E+00    0.0697377938585847
  19    4.48279E+00    0.0660705653362923
  20    4.26747E+00    0.0628970986135579
  21    4.05890E+00    0.0598230634055132
  22    3.85161E+00    0.0567677971074449
  23    3.64955E+00    0.0537897072893248
  24    3.45939E+00    0.0509869642709875
  25    3.29312E+00    0.0485363385873639
  26    3.16314E+00    0.0466205956835362
  27    3.06875E+00    0.0452294472224013
  28    2.99261E+00    0.0441072842615463
  29    2.91490E+00    0.0429619188785509
  30    2.82921E+00    0.0416989227725800
  31    2.74278E+00    0.0404251418269278
  32    2.66406E+00    0.0392647840225337
  33    2.59331E+00    0.0382221216411887
  34    2.52456E+00    0.0372087846861539
  35    2.45276E+00    0.0361506163239084
  36    2.37780E+00    0.0350456952184370
  37    2.30302E+00    0.0339436110552017
  38    2.23210E+00    0.0328983736427133
  39    2.16727E+00    0.0319427573646700
  40    2.10938E+00    0.0310896192610676
  41    2.05866E+00    0.0303420649977602
  42    2.01512E+00    0.0297002785500970
  43    1.97863E+00    0.0291624164187206
  44    1.94883E+00    0.0287233241017648
  45    1.92508E+00    0.0283732250023257
  46    1.90638E+00    0.0280975483218156
  47    1.89135E+00    0.0278761172006766
  48    1.87871E+00    0.0276897521959431
  49    1.86685E+00    0.0275149906738178
  50    1.85457E+00    0.0273339982908775
  51    1.84159E+00    0.0271427082635856
  52    1.82720E+00    0.0269305995399816
  53    1.80912E+00    0.0266641417484387
  54    1.79133E+00    0.0264019465667238
  55    1.77141E+00    0.0261083720220011
  56    1.72810E+00    0.0254699208388668
  57    1.68642E+00    0.0248556801756013
  58    1.68539E+00    0.0248405024240357
  59    1.63674E+00    0.0241234224177109
  60    1.63790E+00    0.0241405774615460
  61    1.54940E+00    0.0228361282797202
  62    1.54476E+00    0.0227677282750436
  63    1.49942E+00    0.0220995248605519
  64    2.54566E+00    0.0375197656427185
