  # July 4, 2014 12:22:22
 # jmin,jmax    0   50
 # Eau     0.00200000
 # r0,ra,rb,rdel,tol,Bau,mu   3.5000  25.0000  25.0000   4.0000  1.0000E-03  3.0130E-07  6.8548E+03
 # parity bigJ  0  0        1  0        1  1        2  0        2  1        2  2        3  0        3  1        3  2        3  3
 # jmin,jmax,maxlamb are            0          50         100
 # j and jp are          19          36
 # lam  B-lambda(j,jp)  angle
#   17     26.9538      8.8390
#   18      0.5825     15.6721
#   19     10.9518     20.5906
#   20      0.4263     24.7688
#   21      6.7585     28.5394
#   22      0.3039     32.0521
#   23      4.5807     35.3892
#   24      0.2182     38.6016
#   25      3.3102     41.7236
#   26      0.1581     44.7798
#   27      2.3978     47.7886
#   28      0.1123     50.7643
#   29      1.8797     53.7187
#   30      0.0792     56.6616
#   31      1.5419     59.6016
#   32      0.0578     62.5464
#   33      1.2334     65.5029
#   34      0.0436     68.4781
#   35      1.0158     71.4784
#   36      0.0331     74.5106
#   37      0.8666     77.5813
#   38      0.0249     80.6978
#   39      0.7557     83.8677
#   40      0.0181     87.0995
#   41      0.6482     90.4027
#   42      0.0123     93.7879
#   43      0.4951     97.2675
#   44      0.0078    100.8564
#   45      0.3293    104.5722
#   46      0.0048    108.4366
#   47      0.2237    112.4774
#   48      0.0028    116.7300
#   49      0.1649    121.2424
#   50      0.0016    126.0817
#   51      0.1164    131.3474
#   52      0.0008    137.1986
#   53      0.0968    143.9214
#   54      0.0003    152.1423
#   55      0.1295    164.0325
   0    5.55510E+01    1.0000000000000000
   1    4.08963E+01    0.7361938208007520
   2    2.84776E+01    0.5126386774080500
   3    2.08744E+01    0.3757705338406176
   4    1.66747E+01    0.3001689032103744
   5    1.29522E+01    0.2331592529725982
   6    1.06174E+01    0.1911288193787633
   7    8.92437E+00    0.1606517620913162
   8    7.95793E+00    0.1432543560597768
   9    6.87391E+00    0.1237405125487410
  10    6.26680E+00    0.1128116149067473
  11    5.65093E+00    0.1017249526223193
  12    5.28708E+00    0.0951751719277477
  13    4.71589E+00    0.0848929540736032
  14    4.44412E+00    0.0800007001190451
  15    4.03689E+00    0.0726698869375731
  16    3.87134E+00    0.0696896982882362
  17    3.54368E+00    0.0637914655410569
  18    3.44357E+00    0.0619893112952224
  19    3.12973E+00    0.0563396639040112
  20    3.05191E+00    0.0549388891045106
  21    2.75276E+00    0.0495536975644057
  22    2.75095E+00    0.0495211811222944
  23    2.47660E+00    0.0445823978646008
  24    2.53361E+00    0.0456086351589941
  25    2.24735E+00    0.0404555494096898
  26    2.34047E+00    0.0421318168369592
  27    2.02684E+00    0.0364860566906038
  28    2.17485E+00    0.0391503940413231
  29    1.79262E+00    0.0322697473362730
  30    2.05665E+00    0.0370227935772391
  31    1.53777E+00    0.0276821614540002
  32    2.00398E+00    0.0360744896875274
  33    1.32395E+00    0.0238331178796478
  34    1.98822E+00    0.0357908116190980
  35    1.09131E+00    0.0196450887374498
  36    1.95033E+00    0.0351087763211443
  37    8.06763E-01    0.0145229071831384
  38    2.38330E+00    0.0429029635962365
