  # July 4, 2014 12:22:22
 # jmin,jmax    0   50
 # Eau     0.00200000
 # r0,ra,rb,rdel,tol,Bau,mu   3.5000  25.0000  25.0000   4.0000  1.0000E-03  3.0130E-07  6.8548E+03
 # parity bigJ  0  0        1  0        1  1        2  0        2  1        2  2        3  0        3  1        3  2        3  3
 # jmin,jmax,maxlamb are            0          50         100
 # j and jp are          12          47
 # lam  B-lambda(j,jp)  angle
#   35      5.0694     13.8475
#   36      0.0089     24.4597
#   37      2.1772     32.0178
#   38      0.0080     38.3875
#   39      1.3189     44.1031
#   40      0.0059     49.4085
#   41      0.8366     54.4403
#   42      0.0039     59.2860
#   43      0.5371     64.0065
#   44      0.0027     68.6477
#   45      0.3481     73.2470
#   46      0.0019     77.8362
#   47      0.2096     82.4448
#   48      0.0012     87.1013
#   49      0.1156     91.8353
#   50      0.0007     96.6792
#   51      0.0723    101.6702
#   52      0.0004    106.8539
#   53      0.0501    112.2886
#   54      0.0002    118.0536
#   55      0.0270    124.2641
#   56      0.0000    131.1022
#   57      0.0095    138.8933
#   58      0.0000    148.3484
#   59      0.0028    161.9355
   0    1.69614E+01    1.0000000000000000
   1    1.29327E+01    0.7624755743109279
   2    8.45591E+00    0.4985374591472626
   3    5.53258E+00    0.3261860461200077
   4    3.97267E+00    0.2342179405776541
   5    3.17155E+00    0.1869858760846694
   6    2.68929E+00    0.1585531083370122
   7    2.30360E+00    0.1358141905052093
   8    2.03541E+00    0.1200021319877973
   9    1.83690E+00    0.1082985913767422
  10    1.66244E+00    0.0980129010892461
  11    1.49435E+00    0.0881025666116569
  12    1.37489E+00    0.0810595419888381
  13    1.26099E+00    0.0743443534923700
  14    1.18047E+00    0.0695972631748378
  15    1.07753E+00    0.0635280151182346
  16    1.02420E+00    0.0603839145060326
  17    9.23158E-01    0.0544268964535645
  18    8.99938E-01    0.0530579016801432
  19    7.85515E-01    0.0463118068415171
  20    7.92787E-01    0.0467405996744305
  21    6.54843E-01    0.0386077558754080
  22    6.85348E-01    0.0404062529192502
  23    5.08272E-01    0.0299663655848075
  24    7.01878E-01    0.0413808138669493
