  # July 4, 2014 12:22:22
 # jmin,jmax    0   50
 # Eau     0.00200000
 # r0,ra,rb,rdel,tol,Bau,mu   3.5000  25.0000  25.0000   4.0000  1.0000E-03  3.0130E-07  6.8548E+03
 # parity bigJ  0  0        1  0        1  1        2  0        2  1        2  2        3  0        3  1        3  2        3  3
 # jmin,jmax,maxlamb are            0          50         100
 # j and jp are          24          34
 # lam  B-lambda(j,jp)  angle
#   10     64.3970      6.2269
#   11      4.0243     11.1624
#   12     20.4612     14.7871
#   13      1.7024     17.9183
#   14     10.1408     20.7835
#   15      1.0057     23.4834
#   16      5.9805     26.0722
#   17      0.6866     28.5834
#   18      3.9372     31.0386
#   19      0.4769     33.4534
#   20      2.7937     35.8390
#   21      0.3178     38.2041
#   22      2.0590     40.5555
#   23      0.2035     42.8988
#   24      1.5829     45.2387
#   25      0.1277     47.5794
#   26      1.2967     49.9244
#   27      0.0839     52.2770
#   28      1.0868     54.6403
#   29      0.0619     57.0171
#   30      0.8821     59.4104
#   31      0.0511     61.8230
#   32      0.7420     64.2575
#   33      0.0424     66.7170
#   34      0.6587     69.2044
#   35      0.0336     71.7228
#   36      0.4914     74.2756
#   37      0.0265     76.8664
#   38      0.3323     79.4991
#   39      0.0210     82.1779
#   40      0.2684     84.9078
#   41      0.0161     87.6939
#   42      0.2274     90.5425
#   43      0.0119     93.4603
#   44      0.1970     96.4553
#   45      0.0083     99.5369
#   46      0.1650    102.7162
#   47      0.0055    106.0064
#   48      0.1235    109.4236
#   49      0.0035    112.9881
#   50      0.1132    116.7252
#   51      0.0019    120.6684
#   52      0.1063    124.8624
#   53      0.0008    129.3704
#   54      0.0670    134.2857
#   55      0.0002    139.7584
#   56      0.0294    146.0577
#   57      0.0001    153.7739
#   58      0.0189    164.9495
   0    6.04245E+01    1.0000000000000000
   1    5.14886E+01    0.8521148558288633
   2    4.23333E+01    0.7005983805374925
   3    3.54682E+01    0.5869831029579000
   4    3.01524E+01    0.4990101412069741
   5    2.60192E+01    0.4306064647491759
   6    2.25590E+01    0.3733423822024364
   7    1.94517E+01    0.3219179109383754
   8    1.69591E+01    0.2806659817257491
   9    1.48959E+01    0.2465214353957378
  10    1.32784E+01    0.2197515123532003
  11    1.18744E+01    0.1965163080807554
  12    1.06126E+01    0.1756341254971241
  13    9.52135E+00    0.1575743078480962
  14    8.69302E+00    0.1438658171961708
  15    7.92434E+00    0.1311444380604545
  16    7.28097E+00    0.1204970912282208
  17    6.66766E+00    0.1103469387749976
  18    6.21372E+00    0.1028344538503349
  19    5.77687E+00    0.0956047158453010
  20    5.47273E+00    0.0905713460676261
  21    5.06150E+00    0.0837656590905675
  22    4.80301E+00    0.0794877866945273
  23    4.44968E+00    0.0736403252624316
  24    4.30493E+00    0.0712448479541264
  25    3.97943E+00    0.0658579315819711
  26    3.86914E+00    0.0640325993782075
  27    3.56074E+00    0.0589286850721916
  28    3.48739E+00    0.0577148858190365
  29    3.21105E+00    0.0531415573409950
  30    3.15246E+00    0.0521719377773814
  31    2.88670E+00    0.0477735983002677
  32    2.85788E+00    0.0472967974929106
  33    2.58358E+00    0.0427571683296472
  34    2.59637E+00    0.0429688468665738
  35    2.30902E+00    0.0382133294847491
  36    2.34796E+00    0.0388576977645616
  37    2.04564E+00    0.0338544623846455
  38    2.13826E+00    0.0353873811642130
  39    1.79995E+00    0.0297884726588320
  40    1.90544E+00    0.0315342784633820
  41    1.58506E+00    0.0262320985378146
  42    1.74275E+00    0.0288418355119578
  43    1.27333E+00    0.0210730019859106
  44    1.65918E+00    0.0274586834291439
  45    1.00798E+00    0.0166816082400655
  46    1.63132E+00    0.0269975928132285
  47    6.87621E-01    0.0113798340724188
  48    1.92575E+00    0.0318703318169396
