  # July 4, 2014 12:22:22
 # jmin,jmax    0   50
 # Eau     0.00200000
 # r0,ra,rb,rdel,tol,Bau,mu   3.5000  25.0000  25.0000   4.0000  1.0000E-03  3.0130E-07  6.8548E+03
 # parity bigJ  0  0        1  0        1  1        2  0        2  1        2  2        3  0        3  1        3  2        3  3
 # jmin,jmax,maxlamb are            0          50         100
 # j and jp are          19          29
 # lam  B-lambda(j,jp)  angle
#   10     53.1039      7.5451
#   11      0.5857     13.5390
#   12     15.6548     17.9473
#   13      0.3077     21.7622
#   14      7.6260     25.2598
#   15      0.1866     28.5627
#   16      4.4870     31.7375
#   17      0.1256     34.8250
#   18      2.9609     37.8523
#   19      0.0926     40.8390
#   20      2.1352     43.7995
#   21      0.0724     46.7453
#   22      1.6974     49.6856
#   23      0.0588     52.6286
#   24      1.3580     55.5811
#   25      0.0490     58.5497
#   26      1.1572     61.5403
#   27      0.0411     64.5590
#   28      1.0128     67.6116
#   29      0.0341     70.7041
#   30      0.8498     73.8429
#   31      0.0280     77.0350
#   32      0.7045     80.2876
#   33      0.0226     83.6092
#   34      0.6443     87.0092
#   35      0.0176     90.4982
#   36      0.5453     94.0891
#   37      0.0134     97.7966
#   38      0.3824    101.6391
#   39      0.0102    105.6390
#   40      0.2987    109.8247
#   41      0.0074    114.2331
#   42      0.2742    118.9140
#   43      0.0051    123.9371
#   44      0.2578    129.4056
#   45      0.0031    135.4853
#   46      0.2810    142.4737
#   47      0.0016    151.0232
#   48      0.4147    163.3949
   0    5.71008E+01    1.0000000000000000
   1    4.27872E+01    0.7493272309463561
   2    3.52088E+01    0.6166069670893061
   3    2.85482E+01    0.4999618584171695
   4    2.53190E+01    0.4434095435343138
   5    2.11650E+01    0.3706599945369634
   6    1.85408E+01    0.3247036265886311
   7    1.56435E+01    0.2739628418938285
   8    1.40765E+01    0.2465202798271596
   9    1.19833E+01    0.2098619427045807
  10    1.09595E+01    0.1919318174496187
  11    9.54573E+00    0.1671733005068134
  12    8.91312E+00    0.1560944671451275
  13    7.73592E+00    0.1354783448077916
  14    7.35639E+00    0.1288316703087964
  15    6.50693E+00    0.1139550265289156
  16    6.23691E+00    0.1092263442070982
  17    5.47005E+00    0.0957962745034925
  18    5.32379E+00    0.0932348339751880
  19    4.70373E+00    0.0823759277984986
  20    4.63677E+00    0.0812032097267801
  21    4.06431E+00    0.0711778547395750
  22    4.05544E+00    0.0710225137571863
  23    3.51342E+00    0.0615300967483311
  24    3.54609E+00    0.0621022026983836
  25    3.04502E+00    0.0533271375631588
  26    3.11904E+00    0.0546233240860258
  27    2.63759E+00    0.0461917483793570
  28    2.78766E+00    0.0488199074537680
  29    2.20628E+00    0.0386383390336693
  30    2.51929E+00    0.0441200688556513
  31    1.81262E+00    0.0317441238988712
  32    2.26883E+00    0.0397336856507279
  33    1.50757E+00    0.0264018447511051
  34    2.07550E+00    0.0363479039011292
  35    1.14396E+00    0.0200339682011128
  36    1.97508E+00    0.0345893094723947
  37    7.78948E-01    0.0136416284905319
  38    2.24662E+00    0.0393447075441231
