  # July 4, 2014 12:22:22
 # jmin,jmax    0   50
 # Eau     0.00200000
 # r0,ra,rb,rdel,tol,Bau,mu   3.5000  25.0000  25.0000   4.0000  1.0000E-03  3.0130E-07  6.8548E+03
 # parity bigJ  0  0        1  0        1  1        2  0        2  1        2  2        3  0        3  1        3  2        3  3
 # jmin,jmax,maxlamb are            0          50         100
 # j and jp are          22          33
 # lam  B-lambda(j,jp)  angle
#   11     62.6007      6.9144
#   12      0.7792     12.3656
#   13     23.6525     16.3525
#   14      0.5268     19.7854
#   15     14.3935     22.9185
#   16      0.4066     25.8649
#   17      9.7067     28.6861
#   18      0.3175     31.4195
#   19      6.8263     34.0901
#   20      0.2522     36.7155
#   21      4.9807     39.3088
#   22      0.1987     41.8799
#   23      3.6564     44.4370
#   24      0.1591     46.9867
#   25      2.8356     49.5346
#   26      0.1292     52.0857
#   27      2.2062     54.6445
#   28      0.1038     57.2150
#   29      1.7757     59.8014
#   30      0.0821     62.4072
#   31      1.4703     65.0364
#   32      0.0646     67.6928
#   33      1.1951     70.3803
#   34      0.0504     73.1030
#   35      0.9969     75.8654
#   36      0.0387     78.6722
#   37      0.8575     81.5286
#   38      0.0289     84.4402
#   39      0.7510     87.4137
#   40      0.0208     90.4563
#   41      0.6520     93.5763
#   42      0.0140     96.7835
#   43      0.5126    100.0895
#   44      0.0088    103.5081
#   45      0.3480    107.0560
#   46      0.0054    110.7540
#   47      0.2329    114.6285
#   48      0.0033    118.7140
#   49      0.1721    123.0567
#   50      0.0018    127.7218
#   51      0.1242    132.8057
#   52      0.0009    138.4629
#   53      0.1024    144.9716
#   54      0.0003    152.9405
#   55      0.1391    164.4783
   0    8.35104E+01    1.0000000000000000
   1    6.53568E+01    0.7826191701313868
   2    4.89005E+01    0.5855625087154632
   3    3.78440E+01    0.4531654558406985
   4    3.07441E+01    0.3681473511046799
   5    2.46643E+01    0.2953446814825779
   6    2.06604E+01    0.2473993535394204
   7    1.76667E+01    0.2115510430068865
   8    1.56106E+01    0.1869306263448930
   9    1.36661E+01    0.1636460353664597
  10    1.24497E+01    0.1490797404415524
  11    1.12810E+01    0.1350846084907897
  12    1.04153E+01    0.1247190857751488
  13    9.45013E+00    0.1131611427982113
  14    8.85564E+00    0.1060423745170979
  15    8.12585E+00    0.0973035183023381
  16    7.66750E+00    0.0918149462862271
  17    7.07237E+00    0.0846885153679006
  18    6.73410E+00    0.0806379280012367
  19    6.22515E+00    0.0745434261687767
  20    5.99096E+00    0.0717391389949623
  21    5.55194E+00    0.0664820767056490
  22    5.38956E+00    0.0645376402441856
  23    4.96911E+00    0.0595029444236836
  24    4.87961E+00    0.0584311729035976
  25    4.50396E+00    0.0539329529019946
  26    4.49780E+00    0.0538592115586063
  27    4.13475E+00    0.0495118608380656
  28    4.17569E+00    0.0500020985650380
  29    3.77727E+00    0.0452311406113460
  30    3.90208E+00    0.0467256969781182
  31    3.43960E+00    0.0411876448337988
  32    3.71117E+00    0.0444396674712367
  33    3.14389E+00    0.0376467401277455
  34    3.57973E+00    0.0428656676457980
  35    2.89035E+00    0.0346106858424765
  36    3.44244E+00    0.0412216713818549
  37    2.61927E+00    0.0313646270156186
  38    3.30690E+00    0.0395986714964966
  39    2.39180E+00    0.0286407296286554
  40    3.24396E+00    0.0388450218141121
  41    2.09664E+00    0.0251062890090620
  42    3.29791E+00    0.0394910307752300
  43    1.67176E+00    0.0200186388215832
  44    3.93946E+00    0.0471733203369482
