  # July 4, 2014 12:22:22
 # jmin,jmax    0   50
 # Eau     0.00200000
 # r0,ra,rb,rdel,tol,Bau,mu   3.5000  25.0000  25.0000   4.0000  1.0000E-03  3.0130E-07  6.8548E+03
 # parity bigJ  0  0        1  0        1  1        2  0        2  1        2  2        3  0        3  1        3  2        3  3
 # jmin,jmax,maxlamb are            0          50         100
 # j and jp are          15          17
 # lam  B-lambda(j,jp)  angle
#    2   1973.8565      4.9191
#    3     18.3631      9.8542
#    4    239.2496     13.9548
#    5      5.2442     17.8175
#    6     71.8928     21.5814
#    7      1.3314     25.3023
#    8     28.8312     29.0089
#    9      0.4398     32.7187
#   10     13.6961     36.4444
#   11      0.1956     40.1958
#   12      7.3111     43.9817
#   13      0.1052     47.8100
#   14      4.3423     51.6889
#   15      0.0644     55.6269
#   16      2.8482     59.6329
#   17      0.0430     63.7169
#   18      2.0861     67.8900
#   19      0.0307     72.1651
#   20      1.6019     76.5572
#   21      0.0229     81.0842
#   22      1.3701     85.7677
#   23      0.0175     90.6343
#   24      1.2088     95.7180
#   25      0.0134    101.0627
#   26      1.1101    106.7278
#   27      0.0100    112.7963
#   28      1.1315    119.3917
#   29      0.0070    126.7118
#   30      1.2486    135.1123
#   31      0.0041    145.3745
#   32      1.9670    160.2144
   0    4.54137E+02    1.0000000000000000
   1    4.17204E+02    0.9186745487539885
   2    3.99172E+02    0.8789684277531887
   3    3.70142E+02    0.8150438945076496
   4    3.48085E+02    0.7664744242454599
   5    3.21667E+02    0.7083043590925305
   6    3.01229E+02    0.6632994956019811
   7    2.78437E+02    0.6131120631788186
   8    2.60741E+02    0.5741448508525334
   9    2.41225E+02    0.5311728329279164
  10    2.26004E+02    0.4976555670336554
  11    2.09209E+02    0.4606740095958241
  12    1.96089E+02    0.4317834714032734
  13    1.81398E+02    0.3994345095357068
  14    1.70041E+02    0.3744269556112368
  15    1.57096E+02    0.3459223948149450
  16    1.47131E+02    0.3239801479702217
  17    1.35528E+02    0.2984300006571166
  18    1.26702E+02    0.2789943104597308
  19    1.16194E+02    0.2558572721342997
  20    1.08331E+02    0.2385415787951692
  21    9.85753E+01    0.2170606521338266
  22    9.15562E+01    0.2016046559011557
  23    8.24044E+01    0.1814526515097693
  24    7.61173E+01    0.1676084842381984
  25    6.72622E+01    0.1481099398476290
  26    6.17310E+01    0.1359303270617902
  27    5.26697E+01    0.1159774655188944
  28    4.81191E+01    0.1059571885346328
  29    3.73038E+01    0.0821421217940257
  30    3.64633E+01    0.0802914084455739
