  # July 4, 2014 12:22:22
 # jmin,jmax    0   50
 # Eau     0.00200000
 # r0,ra,rb,rdel,tol,Bau,mu   3.5000  25.0000  25.0000   4.0000  1.0000E-03  3.0130E-07  6.8548E+03
 # parity bigJ  0  0        1  0        1  1        2  0        2  1        2  2        3  0        3  1        3  2        3  3
 # jmin,jmax,maxlamb are            0          50         100
 # j and jp are          16          44
 # lam  B-lambda(j,jp)  angle
#   28      4.6317     11.1557
#   29      0.0878     19.6800
#   30      1.9301     25.7486
#   31      0.0856     30.8551
#   32      1.3012     35.4263
#   33      0.0698     39.6556
#   34      0.9484     43.6504
#   35      0.0521     47.4781
#   36      0.6431     51.1843
#   37      0.0362     54.8023
#   38      0.4612     58.3574
#   39      0.0234     61.8699
#   40      0.3573     65.3566
#   41      0.0144     68.8322
#   42      0.2986     72.3098
#   43      0.0092     75.8018
#   44      0.2440     79.3202
#   45      0.0063     82.8769
#   46      0.1587     86.4845
#   47      0.0042     90.1561
#   48      0.1105     93.9067
#   49      0.0024     97.7529
#   50      0.1027    101.7144
#   51      0.0011    105.8148
#   52      0.0727    110.0833
#   53      0.0004    114.5575
#   54      0.0317    119.2873
#   55      0.0001    124.3423
#   56      0.0114    129.8249
#   57      0.0000    135.8990
#   58      0.0053    142.8586
#   59      0.0000    151.3475
#   60      0.0025    163.5977
   0    1.41399E+01    1.0000000000000000
   1    1.04070E+01    0.7360040623519261
   2    6.61523E+00    0.4678425268517770
   3    4.49410E+00    0.3178320569634144
   4    3.35235E+00    0.2370846600699472
   5    2.60429E+00    0.1841807163757315
   6    2.18169E+00    0.1542935267892804
   7    1.90001E+00    0.1343727080586391
   8    1.69397E+00    0.1198010890894381
   9    1.56731E+00    0.1108435823566357
  10    1.42370E+00    0.1006867312394309
  11    1.22062E+00    0.0863247883120334
  12    1.08400E+00    0.0766623960773657
  13    1.00604E+00    0.0711489488283222
  14    9.33539E-01    0.0660217844652502
  15    8.46551E-01    0.0598698161958976
  16    7.98593E-01    0.0564781427169470
  17    7.50640E-01    0.0530868143001998
  18    7.11966E-01    0.0503517133274014
  19    6.53347E-01    0.0462060542570307
  20    6.23504E-01    0.0440954415617533
  21    5.76151E-01    0.0407465976429807
  22    5.70680E-01    0.0403596356785204
  23    5.17191E-01    0.0365767999236411
  24    5.47692E-01    0.0387339037378705
  25    4.61948E-01    0.0326699033037517
  26    5.44509E-01    0.0385087570273442
  27    4.08981E-01    0.0289239567240426
  28    5.00807E-01    0.0354180928431596
  29    3.60702E-01    0.0255095604446703
  30    4.76074E-01    0.0336689540822125
  31    2.26767E-01    0.0160374537480501
  32    5.87020E-01    0.0415152295357347
