  # July 4, 2014 12:22:22
 # jmin,jmax    0   50
 # Eau     0.00200000
 # r0,ra,rb,rdel,tol,Bau,mu   3.5000  25.0000  25.0000   4.0000  1.0000E-03  3.0130E-07  6.8548E+03
 # parity bigJ  0  0        1  0        1  1        2  0        2  1        2  2        3  0        3  1        3  2        3  3
 # jmin,jmax,maxlamb are            0          50         100
 # j and jp are          16          18
 # lam  B-lambda(j,jp)  angle
#    2   2080.5951      4.6371
#    3     21.5461      9.2876
#    4    251.5819     13.1505
#    5      6.1429     16.7876
#    6     75.6319     20.3295
#    7      1.5776     23.8285
#    8     30.2766     27.3110
#    9      0.5270     30.7932
#   10     14.3571     34.2862
#   11      0.2350     37.7988
#   12      7.6346     41.3382
#   13      0.1258     44.9113
#   14      4.5191     48.5246
#   15      0.0770     52.1847
#   16      2.9512     55.8986
#   17      0.0519     59.6739
#   18      2.1448     63.5188
#   19      0.0374     67.4426
#   20      1.6312     71.4559
#   21      0.0282     75.5709
#   22      1.3800     79.8020
#   23      0.0218     84.1664
#   24      1.1928     88.6849
#   25      0.0171     93.3834
#   26      1.0688     98.2946
#   27      0.0133    103.4613
#   28      1.0383    108.9409
#   29      0.0099    114.8140
#   30      1.0293    121.2006
#   31      0.0069    128.2924
#   32      1.0796    136.4351
#   33      0.0039    146.3866
#   34      1.7814    160.7810
   0    4.52056E+02    1.0000000000000000
   1    4.17308E+02    0.9231343703709129
   2    4.00371E+02    0.8856675589579398
   3    3.73395E+02    0.8259928144624952
   4    3.52603E+02    0.7799984835863923
   5    3.27391E+02    0.7242274083534544
   6    3.07761E+02    0.6808036065659574
   7    2.85737E+02    0.6320842742526692
   8    2.68406E+02    0.5937456948797819
   9    2.49494E+02    0.5519102660190736
  10    2.34415E+02    0.5185523129047391
  11    2.18022E+02    0.4822890598719617
  12    2.04974E+02    0.4534262677514560
  13    1.90601E+02    0.4216326550319225
  14    1.79202E+02    0.3964163836824665
  15    1.66477E+02    0.3682676276071638
  16    1.56516E+02    0.3462323917330916
  17    1.45084E+02    0.3209431734007133
  18    1.36249E+02    0.3013991980111400
  19    1.25860E+02    0.2784171095072538
  20    1.17979E+02    0.2609827381219015
  21    1.08451E+02    0.2399056137807480
  22    1.01318E+02    0.2241279112332895
  23    9.24076E+01    0.2044164340411438
  24    8.60137E+01    0.1902723575354849
  25    7.75616E+01    0.1715753131033874
  26    7.17914E+01    0.1588110442378292
  27    6.35627E+01    0.1406081223740036
  28    5.84429E+01    0.1292824365795993
  29    4.99561E+01    0.1105088186051904
  30    4.56907E+01    0.1010732051706047
  31    3.55185E+01    0.0785711792887276
  32    3.45831E+01    0.0765018235404789
