  # July 4, 2014 12:22:22
 # jmin,jmax    0   50
 # Eau     0.00200000
 # r0,ra,rb,rdel,tol,Bau,mu   3.5000  25.0000  25.0000   4.0000  1.0000E-03  3.0130E-07  6.8548E+03
 # parity bigJ  0  0        1  0        1  1        2  0        2  1        2  2        3  0        3  1        3  2        3  3
 # jmin,jmax,maxlamb are            0          50         100
 # j and jp are          25          31
 # lam  B-lambda(j,jp)  angle
#    6    253.4743      4.9496
#    7     10.7431      9.0492
#    8     62.8793     12.1525
#    9      3.9943     14.8985
#   10     25.3980     17.4595
#   11      1.9758     19.9097
#   12     12.4866     22.2884
#   13      0.9633     24.6191
#   14      7.0834     26.9171
#   15      0.4569     29.1929
#   16      4.4335     31.4543
#   17      0.2603     33.7070
#   18      2.9958     35.9558
#   19      0.1728     38.2045
#   20      2.2143     40.4562
#   21      0.1277     42.7139
#   22      1.7634     44.9801
#   23      0.1020     47.2571
#   24      1.4187     49.5472
#   25      0.0858     51.8525
#   26      1.2162     54.1752
#   27      0.0725     56.5173
#   28      1.0500     58.8811
#   29      0.0600     61.2688
#   30      0.8566     63.6828
#   31      0.0492     66.1255
#   32      0.7167     68.5995
#   33      0.0399     71.1078
#   34      0.6494     73.6534
#   35      0.0315     76.2397
#   36      0.5021     78.8705
#   37      0.0247     81.5498
#   38      0.3380     84.2823
#   39      0.0195     87.0733
#   40      0.2691     89.9286
#   41      0.0149     92.8553
#   42      0.2306     95.8611
#   43      0.0109     98.9555
#   44      0.2004    102.1494
#   45      0.0076    105.4562
#   46      0.1746    108.8922
#   47      0.0050    112.4774
#   48      0.1347    116.2376
#   49      0.0031    120.2064
#   50      0.1223    124.4289
#   51      0.0017    128.9687
#   52      0.1260    133.9200
#   53      0.0007    139.4339
#   54      0.0967    145.7821
#   55      0.0002    153.5597
#   56      0.0679    164.8265
   0    1.19098E+02    1.0000000000000000
   1    1.07891E+02    0.9059054951403240
   2    9.70909E+01    0.8152199214202220
   3    8.78865E+01    0.7379351200009167
   4    8.01604E+01    0.6730633819867238
   5    7.30632E+01    0.6134720400021934
   6    6.62770E+01    0.5564918429860669
   7    5.97767E+01    0.5019126450138913
   8    5.40301E+01    0.4536613737762228
   9    4.88343E+01    0.4100347576645680
  10    4.44057E+01    0.3728505229566518
  11    4.02505E+01    0.3379612880795499
  12    3.67334E+01    0.3084300858369781
  13    3.35588E+01    0.2817752206519544
  14    3.08795E+01    0.2592782629448803
  15    2.82983E+01    0.2376057648010198
  16    2.61706E+01    0.2197403333636080
  17    2.41172E+01    0.2024990956189635
  18    2.25154E+01    0.1890493506970350
  19    2.08390E+01    0.1749737233311579
  20    1.95181E+01    0.1638827285530034
  21    1.81122E+01    0.1520779957423886
  22    1.71143E+01    0.1436993584229936
  23    1.59681E+01    0.1340755773221023
  24    1.51346E+01    0.1270766553651271
  25    1.41345E+01    0.1186794354875081
  26    1.34432E+01    0.1128750618509198
  27    1.25855E+01    0.1056734372313514
  28    1.20192E+01    0.1009190803490188
  29    1.12474E+01    0.0944385251621164
  30    1.07926E+01    0.0906195471101961
  31    1.00743E+01    0.0845883863963348
  32    9.69979E+00    0.0814438965569938
  33    9.01926E+00    0.0757298753363842
  34    8.70797E+00    0.0731161353354575
  35    8.05209E+00    0.0676090626130044
  36    7.81842E+00    0.0656470713318435
  37    7.16412E+00    0.0601532150894729
  38    6.95552E+00    0.0584017265707418
  39    6.32860E+00    0.0531378164461859
  40    6.16460E+00    0.0517608242448864
  41    5.44706E+00    0.0457360292922706
  42    5.47338E+00    0.0459569821925938
  43    4.58637E+00    0.0385092484594661
  44    4.73899E+00    0.0397906942625292
  45    3.73937E+00    0.0313974362933844
  46    4.10415E+00    0.0344602989377918
  47    2.90112E+00    0.0243591484468217
  48    3.57720E+00    0.0300358057059768
  49    2.01513E+00    0.0169199535876299
  50    3.45056E+00    0.0289724507869166
