  # July 4, 2014 12:22:22
 # jmin,jmax    0   50
 # Eau     0.00200000
 # r0,ra,rb,rdel,tol,Bau,mu   3.5000  25.0000  25.0000   4.0000  1.0000E-03  3.0130E-07  6.8548E+03
 # parity bigJ  0  0        1  0        1  1        2  0        2  1        2  2        3  0        3  1        3  2        3  3
 # jmin,jmax,maxlamb are            0          50         100
 # j and jp are          29          34
 # lam  B-lambda(j,jp)  angle
#    5    193.7705      4.0148
#    6      3.7821      7.4098
#    7     69.5690     10.0126
#    8      2.7515     12.3372
#    9     39.4845     14.5196
#   10      1.9677     16.6178
#   11     25.2930     18.6619
#   12      1.5541     20.6699
#   13     17.4715     22.6532
#   14      1.2588     24.6196
#   15     12.3380     26.5747
#   16      1.0231     28.5229
#   17      8.8512     30.4673
#   18      0.7849     32.4106
#   19      6.5915     34.3552
#   20      0.5423     36.3028
#   21      4.8214     38.2552
#   22      0.3680     40.2140
#   23      3.6814     42.1804
#   24      0.2795     44.1559
#   25      2.8829     46.1417
#   26      0.2238     48.1391
#   27      2.2061     50.1494
#   28      0.1718     52.1737
#   29      1.8037     54.2134
#   30      0.1307     56.2697
#   31      1.4858     58.3441
#   32      0.1012     60.4378
#   33      1.1970     62.5525
#   34      0.0785     64.6897
#   35      0.9969     66.8511
#   36      0.0601     69.0385
#   37      0.8512     71.2538
#   38      0.0452     73.4991
#   39      0.7379     75.7767
#   40      0.0326     78.0892
#   41      0.6106     80.4392
#   42      0.0217     82.8299
#   43      0.4349     85.2645
#   44      0.0138     87.7470
#   45      0.2759     90.2816
#   46      0.0089     92.8730
#   47      0.1861     95.5270
#   48      0.0056     98.2498
#   49      0.1252    101.0489
#   50      0.0033    103.9330
#   51      0.0781    106.9124
#   52      0.0018    109.9997
#   53      0.0569    113.2101
#   54      0.0008    116.5626
#   55      0.0395    120.0814
#   56      0.0003    123.7980
#   57      0.0171    127.7550
#   58      0.0000    132.0123
#   59      0.0038    136.6584
#   60      0.0000    141.8358
#   61      0.0005    147.8001
#   62      0.0000    155.1114
#   63      0.0002    165.7067
   0    1.19110E+02    1.0000000000000000
   1    1.04906E+02    0.8807521531646708
   2    8.64007E+01    0.7253868815246917
   3    7.12468E+01    0.5981606738236455
   4    6.00640E+01    0.5042746502936166
   5    5.11471E+01    0.4294114597754960
   6    4.37491E+01    0.3673002551719023
   7    3.79005E+01    0.3181978274379167
   8    3.35406E+01    0.2815943182980593
   9    3.01394E+01    0.2530390702834270
  10    2.72452E+01    0.2287401102297004
  11    2.48164E+01    0.2083488070029458
  12    2.28398E+01    0.1917543892745208
  13    2.11664E+01    0.1777050671263776
  14    1.96611E+01    0.1650672260562508
  15    1.82845E+01    0.1535095997909946
  16    1.70874E+01    0.1434590407565612
  17    1.60765E+01    0.1349720228097033
  18    1.51689E+01    0.1273520097216106
  19    1.43256E+01    0.1202719203264893
  20    1.35823E+01    0.1140321018327332
  21    1.29352E+01    0.1085986481890546
  22    1.23500E+01    0.1036858784737016
  23    1.18079E+01    0.0991343288190500
  24    1.13182E+01    0.0950230416352158
  25    1.08526E+01    0.0911146471759551
  26    1.04307E+01    0.0875723970769478
  27    1.00273E+01    0.0841850114787725
  28    9.70371E+00    0.0814686009423533
  29    9.37571E+00    0.0787148227767719
  30    9.11972E+00    0.0765656653365258
  31    8.79698E+00    0.0738560642396021
  32    8.55270E+00    0.0718051670870300
  33    8.23226E+00    0.0691148704257328
  34    8.02642E+00    0.0673867107762724
  35    7.74949E+00    0.0650617170080275
  36    7.60147E+00    0.0638189904222518
  37    7.34515E+00    0.0616670863462203
  38    7.25045E+00    0.0608720073235425
  39    6.98030E+00    0.0586039399969186
  40    6.93608E+00    0.0582326661968758
  41    6.65445E+00    0.0558681716174716
  42    6.65984E+00    0.0559134229128600
  43    6.35122E+00    0.0533224042943901
  44    6.45567E+00    0.0541993292657694
  45    6.03729E+00    0.0506867865192205
  46    6.33180E+00    0.0531593371693275
  47    5.77233E+00    0.0484622393494914
  48    6.23592E+00    0.0523543730132950
  49    5.47613E+00    0.0459754909087347
  50    6.06344E+00    0.0509063235481995
  51    5.21775E+00    0.0438062532629285
  52    6.02763E+00    0.0506056534942059
  53    4.95141E+00    0.0415701547441283
  54    6.08436E+00    0.0510819342899577
  55    4.63599E+00    0.0389220022501520
  56    6.38140E+00    0.0535757972099296
  57    4.00107E+00    0.0335914564262783
  58    7.94341E+00    0.0666898115235053
