  # July 4, 2014 12:22:22
 # jmin,jmax    0   50
 # Eau     0.00200000
 # r0,ra,rb,rdel,tol,Bau,mu   3.5000  25.0000  25.0000   4.0000  1.0000E-03  3.0130E-07  6.8548E+03
 # parity bigJ  0  0        1  0        1  1        2  0        2  1        2  2        3  0        3  1        3  2        3  3
 # jmin,jmax,maxlamb are            0          50         100
 # j and jp are          22          46
 # lam  B-lambda(j,jp)  angle
#   24      8.4238      8.6625
#   25      0.2997     15.2710
#   26      3.5825     19.9766
#   27      0.2068     23.9333
#   28      2.2336     27.4706
#   29      0.1591     30.7371
#   30      1.6854     33.8150
#   31      0.1299     36.7552
#   32      1.3883     39.5917
#   33      0.1044     42.3491
#   34      1.0482     45.0453
#   35      0.0815     47.6944
#   36      0.7610     50.3076
#   37      0.0610     52.8941
#   38      0.6160     55.4616
#   39      0.0429     58.0167
#   40      0.5275     60.5655
#   41      0.0289     63.1132
#   42      0.4051     65.6649
#   43      0.0189     68.2251
#   44      0.2394     70.7984
#   45      0.0117     73.3892
#   46      0.1317     76.0019
#   47      0.0066     78.6411
#   48      0.1164     81.3115
#   49      0.0035     84.0182
#   50      0.0987     86.7663
#   51      0.0016     89.5618
#   52      0.0500     92.4110
#   53      0.0006     95.3213
#   54      0.0161     98.3007
#   55      0.0002    101.3589
#   56      0.0053    104.5068
#   57      0.0001    107.7576
#   58      0.0019    111.1275
#   59      0.0000    114.6361
#   60      0.0004    118.3085
#   61      0.0000    122.1772
#   62      0.0001    126.2861
#   63      0.0000    130.6964
#   64      0.0001    135.4992
#   65      0.0000    140.8400
#   66      0.0001    146.9807
#   67      0.0000    154.4946
#   68      0.0001    165.3659
   0    2.02430E+01    1.0000000000000000
   1    1.65415E+01    0.8171472870586795
   2    1.15651E+01    0.5713155357646387
   3    7.71398E+00    0.3810693175225110
   4    5.59664E+00    0.2764731229688365
   5    4.54014E+00    0.2242823309636240
   6    3.88055E+00    0.1916984262213571
   7    3.37236E+00    0.1665940473655201
   8    2.94311E+00    0.1453890854358638
   9    2.57065E+00    0.1269895405636635
  10    2.29126E+00    0.1131880295171753
  11    2.10116E+00    0.1037969143238857
  12    1.91125E+00    0.0944154643230745
  13    1.67681E+00    0.0828340061944952
  14    1.47961E+00    0.0730925763071516
  15    1.39809E+00    0.0690655084843663
  16    1.38330E+00    0.0683347584996577
  17    1.33752E+00    0.0660734486868025
  18    1.24683E+00    0.0615932649954207
  19    1.16001E+00    0.0573042017143737
  20    1.09783E+00    0.0542325118162856
  21    1.04176E+00    0.0514630083929984
  22    9.82635E-01    0.0485420059624453
  23    9.28885E-01    0.0458867788404211
  24    8.86235E-01    0.0437798604748491
  25    8.48291E-01    0.0419054542195299
  26    8.09922E-01    0.0400100105202604
  27    7.70793E-01    0.0380770315666497
  28    7.33527E-01    0.0362361305631889
  29    6.98941E-01    0.0345275967784246
  30    6.66693E-01    0.0329345225432944
  31    6.36004E-01    0.0314184737494900
  32    6.09541E-01    0.0301112310970246
  33    5.82647E-01    0.0287826880442332
  34    5.66325E-01    0.0279763836670686
  35    5.49094E-01    0.0271251502317033
  36    5.42594E-01    0.0268040751437441
  37    5.42444E-01    0.0267966579734727
  38    5.57132E-01    0.0275222168593943
  39    5.01620E-01    0.0247799413351572
  40    5.94856E-01    0.0293858140847593
  41    4.59152E-01    0.0226820270436367
  42    5.14368E-01    0.0254097003512954
  43    3.70219E-01    0.0182887755058451
  44    7.40477E-01    0.0365794562830827
