  # July 4, 2014 12:22:22
 # jmin,jmax    0   50
 # Eau     0.00200000
 # r0,ra,rb,rdel,tol,Bau,mu   3.5000  25.0000  25.0000   4.0000  1.0000E-03  3.0130E-07  6.8548E+03
 # parity bigJ  0  0        1  0        1  1        2  0        2  1        2  2        3  0        3  1        3  2        3  3
 # jmin,jmax,maxlamb are            0          50         100
 # j and jp are          22          47
 # lam  B-lambda(j,jp)  angle
#   25     14.2756      8.7472
#   26      0.3417     15.4132
#   27      6.0673     20.1551
#   28      0.2932     24.1389
#   29      3.9351     27.6975
#   30      0.1852     30.9813
#   31      2.8254     34.0734
#   32      0.1320     37.0253
#   33      2.2212     39.8716
#   34      0.0908     42.6369
#   35      1.7269     45.3397
#   36      0.0599     47.9940
#   37      1.2587     50.6113
#   38      0.0380     53.2009
#   39      0.8951     55.7705
#   40      0.0220     58.3270
#   41      0.6283     60.8763
#   42      0.0121     63.4239
#   43      0.4442     65.9747
#   44      0.0075     68.5334
#   45      0.3078     71.1047
#   46      0.0050     73.6928
#   47      0.1851     76.3024
#   48      0.0032     78.9380
#   49      0.1018     81.6043
#   50      0.0020     84.3062
#   51      0.0648     87.0492
#   52      0.0011     89.8391
#   53      0.0396     92.6823
#   54      0.0004     95.5860
#   55      0.0161     98.5584
#   56      0.0001    101.6089
#   57      0.0036    104.7487
#   58      0.0000    107.9909
#   59      0.0005    111.3514
#   60      0.0000    114.8500
#   61      0.0001    118.5116
#   62      0.0000    122.3688
#   63      0.0001    126.4650
#   64      0.0000    130.8615
#   65      0.0001    135.6489
#   66      0.0000    140.9724
#   67      0.0001    147.0928
#   68      0.0000    154.5815
#   69      0.0000    165.4156
   0    3.27460E+01    1.0000000000000000
   1    2.75584E+01    0.8415808746997356
   2    2.01683E+01    0.6159018973492287
   3    1.38387E+01    0.4226063301105727
   4    9.86547E+00    0.3012724955234146
   5    7.74065E+00    0.2363843202724898
   6    6.54311E+00    0.1998139292029249
   7    5.72135E+00    0.1747188595467493
   8    5.05686E+00    0.1544268404084131
   9    4.48078E+00    0.1368341975283129
  10    3.98769E+00    0.1217763725371186
  11    3.57355E+00    0.1091292662979090
  12    3.22797E+00    0.0985760414803961
  13    2.96047E+00    0.0904068889766676
  14    2.77346E+00    0.0846961167714207
  15    2.62451E+00    0.0801473219009073
  16    2.46692E+00    0.0753349561437204
  17    2.30122E+00    0.0702747635037427
  18    2.15243E+00    0.0657309999411506
  19    2.02341E+00    0.0617909309967647
  20    1.90234E+00    0.0580939040045323
  21    1.78892E+00    0.0546300991710071
  22    1.69250E+00    0.0516856592961353
  23    1.61343E+00    0.0492711312213518
  24    1.54398E+00    0.0471500448247599
  25    1.47765E+00    0.0451246461168517
  26    1.41440E+00    0.0431930448491269
  27    1.35538E+00    0.0413907199522684
  28    1.30105E+00    0.0397316457897881
  29    1.25005E+00    0.0381739554576487
  30    1.20166E+00    0.0366963673410254
  31    1.15466E+00    0.0352612088133647
  32    1.10938E+00    0.0338782724418314
  33    1.06613E+00    0.0325576661113776
  34    1.02497E+00    0.0313006273749812
  35    9.89748E-01    0.0302249922971345
  36    9.62131E-01    0.0293816124079437
  37    9.31708E-01    0.0284525538655220
  38    9.42119E-01    0.0287704975900604
  39    8.90380E-01    0.0271904705057488
  40    9.22788E-01    0.0281801641660576
  41    8.52910E-01    0.0260462234994912
  42    9.20166E-01    0.0281000801622330
  43    6.99949E-01    0.0213750876598795
  44    1.04035E+00    0.0317701870645025
