  # July 4, 2014 12:22:22
 # jmin,jmax    0   50
 # Eau     0.00200000
 # r0,ra,rb,rdel,tol,Bau,mu   3.5000  25.0000  25.0000   4.0000  1.0000E-03  3.0130E-07  6.8548E+03
 # parity bigJ  0  0        1  0        1  1        2  0        2  1        2  2        3  0        3  1        3  2        3  3
 # jmin,jmax,maxlamb are            0          50         100
 # j and jp are           9          50
 # lam  B-lambda(j,jp)  angle
#   41      1.9466     16.6399
#   42      0.0023     29.4888
#   43      0.6378     38.6759
#   44      0.0020     46.4611
#   45      0.2747     53.4936
#   46      0.0014     60.0733
#   47      0.1168     66.3728
#   48      0.0009     72.5071
#   49      0.0541     78.5622
#   50      0.0005     84.6101
#   51      0.0358     90.7176
#   52      0.0003     96.9539
#   53      0.0253    103.3974
#   54      0.0001    110.1466
#   55      0.0127    117.3375
#   56      0.0000    125.1785
#   57      0.0041    134.0359
#   58      0.0000    144.7041
#   59      0.0012    159.9404
   0    6.10895E+00    1.0000000000000000
   1    4.95591E+00    0.8112535970623298
   2    3.59783E+00    0.5889443171437374
   3    2.55130E+00    0.4176330512615952
   4    1.82603E+00    0.2989102653986583
   5    1.37329E+00    0.2248000168243855
   6    1.12769E+00    0.1845962246387091
   7    9.63146E-01    0.1576614196357870
   8    8.27559E-01    0.1354667456160832
   9    7.10896E-01    0.1163696001776344
  10    6.21571E-01    0.1017476663544679
  11    5.38495E-01    0.0881485533830091
  12    4.73464E-01    0.0775034162009014
  13    4.01071E-01    0.0656529507538321
  14    3.54186E-01    0.0579781787828276
  15    2.80095E-01    0.0458500197217419
  16    2.55094E-01    0.0417574001432778
  17    1.57586E-01    0.0257958535062876
  18    1.65212E-01    0.0270442750286631
