  # July 4, 2014 12:22:22
 # jmin,jmax    0   50
 # Eau     0.00200000
 # r0,ra,rb,rdel,tol,Bau,mu   3.5000  25.0000  25.0000   4.0000  1.0000E-03  3.0130E-07  6.8548E+03
 # parity bigJ  0  0        1  0        1  1        2  0        2  1        2  2        3  0        3  1        3  2        3  3
 # jmin,jmax,maxlamb are            0          50         100
 # j and jp are          25          28
 # lam  B-lambda(j,jp)  angle
#    3    313.5274      3.6806
#    4      2.9344      7.0537
#    5     96.7178      9.7523
#    6      1.9586     12.2340
#    7     50.1489     14.6123
#    8      1.4118     16.9335
#    9     31.3171     19.2211
#   10      1.0268     21.4886
#   11     21.2406     23.7446
#   12      0.7023     25.9950
#   13     14.6767     28.2443
#   14      0.5211     30.4957
#   15     10.5399     32.7520
#   16      0.4169     35.0155
#   17      7.6986     37.2883
#   18      0.3401     39.5724
#   19      5.7614     41.8694
#   20      0.2728     44.1813
#   21      4.3658     46.5096
#   22      0.2130     48.8562
#   23      3.2849     51.2229
#   24      0.1654     53.6116
#   25      2.6059     56.0240
#   26      0.1298     58.4625
#   27      2.0759     60.9291
#   28      0.1024     63.4261
#   29      1.6977     65.9563
#   30      0.0809     68.5223
#   31      1.4285     71.1271
#   32      0.0635     73.7743
#   33      1.1775     76.4674
#   34      0.0494     79.2106
#   35      0.9909     82.0087
#   36      0.0378     84.8669
#   37      0.8618     87.7912
#   38      0.0281     90.7887
#   39      0.7622     93.8674
#   40      0.0201     97.0367
#   41      0.6742    100.3081
#   42      0.0135    103.6949
#   43      0.5536    107.2139
#   44      0.0083    110.8857
#   45      0.3941    114.7365
#   46      0.0050    118.8006
#   47      0.2673    123.1243
#   48      0.0029    127.7725
#   49      0.2058    132.8416
#   50      0.0015    138.4863
#   51      0.1701    144.9845
#   52      0.0006    152.9454
#   53      0.2071    164.4776
   0    1.44860E+02    1.0000000000000000
   1    1.20602E+02    0.8325468119507663
   2    9.89024E+01    0.6827463193441875
   3    8.27178E+01    0.5710205415821383
   4    7.06582E+01    0.4877702643978769
   5    6.02519E+01    0.4159333797969709
   6    5.30260E+01    0.3660507611862536
   7    4.70199E+01    0.3245894099130501
   8    4.24237E+01    0.2928610916905809
   9    3.83637E+01    0.2648335285241387
  10    3.54092E+01    0.2444383222953284
  11    3.24449E+01    0.2239748272061299
  12    3.01993E+01    0.2084728418793283
  13    2.79841E+01    0.1931809024109531
  14    2.63482E+01    0.1818876454262160
  15    2.45784E+01    0.1696703900360556
  16    2.33127E+01    0.1609329645455226
  17    2.18250E+01    0.1506630628778090
  18    2.08101E+01    0.1436570779562378
  19    1.95407E+01    0.1348943198246046
  20    1.87361E+01    0.1293398149102252
  21    1.76301E+01    0.1217050062854251
  22    1.70198E+01    0.1174914453314818
  23    1.60776E+01    0.1109872584005400
  24    1.56378E+01    0.1079516084269641
  25    1.47702E+01    0.1019618419816434
  26    1.44702E+01    0.0998911649303537
  27    1.36522E+01    0.0942443731423924
  28    1.35467E+01    0.0935160716847132
  29    1.27328E+01    0.0878973335377460
  30    1.27897E+01    0.0882903057626413
  31    1.19083E+01    0.0822056140165734
  32    1.21032E+01    0.0835513312296698
  33    1.11738E+01    0.0771356747824663
  34    1.15024E+01    0.0794038115605278
  35    1.05482E+01    0.0728165406643487
  36    1.09996E+01    0.0759325987338407
  37    9.99625E+00    0.0690064992391432
  38    1.05613E+01    0.0729068162801002
  39    9.53486E+00    0.0658214156777806
  40    1.02674E+01    0.0708779738655832
  41    9.06893E+00    0.0626049576869660
  42    1.00039E+01    0.0690589431625168
  43    8.59032E+00    0.0593009742428473
  44    9.87528E+00    0.0681713871428047
  45    8.11926E+00    0.0560491646880807
  46    9.95311E+00    0.0687086568461718
  47    7.57976E+00    0.0523248731388135
  48    1.07344E+01    0.0741020266174464
  49    6.70949E+00    0.0463171890446111
  50    1.44514E+01    0.0997612718789530
