  # July 4, 2014 12:22:22
 # jmin,jmax    0   50
 # Eau     0.00200000
 # r0,ra,rb,rdel,tol,Bau,mu   3.5000  25.0000  25.0000   4.0000  1.0000E-03  3.0130E-07  6.8548E+03
 # parity bigJ  0  0        1  0        1  1        2  0        2  1        2  2        3  0        3  1        3  2        3  3
 # jmin,jmax,maxlamb are            0          50         100
 # j and jp are          26          46
 # lam  B-lambda(j,jp)  angle
#   20     13.4347      7.2904
#   21      0.7634     12.8721
#   22      5.5345     16.8608
#   23      0.4846     20.2249
#   24      3.5024     23.2398
#   25      0.3780     26.0295
#   26      2.3905     28.6621
#   27      0.3003     31.1797
#   28      1.7361     33.6105
#   29      0.2438     35.9744
#   30      1.4459     38.2859
#   31      0.1952     40.5565
#   32      1.2414     42.7949
#   33      0.1534     45.0083
#   34      0.9580     47.2028
#   35      0.1182     49.3833
#   36      0.7290     51.5542
#   37      0.0870     53.7194
#   38      0.6170     55.8823
#   39      0.0597     58.0460
#   40      0.5367     60.2135
#   41      0.0395     62.3875
#   42      0.4043     64.5707
#   43      0.0259     66.7656
#   44      0.2259     68.9748
#   45      0.0161     71.2009
#   46      0.1227     73.4464
#   47      0.0090     75.7141
#   48      0.1114     78.0066
#   49      0.0045     80.3270
#   50      0.0880     82.6784
#   51      0.0019     85.0641
#   52      0.0401     87.4878
#   53      0.0008     89.9535
#   54      0.0123     92.4657
#   55      0.0003     95.0293
#   56      0.0044     97.6500
#   57      0.0001    100.3342
#   58      0.0014    103.0892
#   59      0.0000    105.9239
#   60      0.0002    108.8482
#   61      0.0000    111.8746
#   62      0.0001    115.0180
#   63      0.0000    118.2970
#   64      0.0001    121.7350
#   65      0.0000    125.3629
#   66      0.0000    129.2219
#   67      0.0000    133.3703
#   68      0.0000    137.8942
#   69      0.0000    142.9315
#   70      0.0000    148.7306
#   71      0.0000    155.8346
#   72      0.0000    166.1226
   0    2.59920E+01    1.0000000000000000
   1    2.20399E+01    0.8479491651806119
   2    1.63837E+01    0.6303367317938084
   3    1.15438E+01    0.4441285827444415
   4    8.55384E+00    0.3290952099713996
   5    6.96862E+00    0.2681065399692029
   6    5.97634E+00    0.2299301180643883
   7    5.14996E+00    0.1981363000756093
   8    4.41839E+00    0.1699905405661817
   9    3.80708E+00    0.1464714357611618
  10    3.33744E+00    0.1284026089291002
  11    3.00386E+00    0.1155688644036438
  12    2.74726E+00    0.1056964269825011
  13    2.49754E+00    0.0960889555742168
  14    2.25936E+00    0.0869251892358206
  15    2.09812E+00    0.0807216359453133
  16    2.02634E+00    0.0779603764068295
  17    1.96219E+00    0.0754922708008458
  18    1.83077E+00    0.0704361319859974
  19    1.65709E+00    0.0637538561086002
  20    1.51788E+00    0.0583980205997191
  21    1.43796E+00    0.0553231395355537
  22    1.38103E+00    0.0531329461712968
  23    1.31755E+00    0.0506905174598158
  24    1.25433E+00    0.0482583976285789
  25    1.20302E+00    0.0462841525448977
  26    1.15781E+00    0.0445447616212615
  27    1.10887E+00    0.0426618769096417
  28    1.05801E+00    0.0407054082954377
  29    1.01245E+00    0.0389524168285580
  30    9.74470E-01    0.0374911580567903
  31    9.40393E-01    0.0361801160633250
  32    9.07337E-01    0.0349083416027992
  33    8.74483E-01    0.0336443406750626
  34    8.43260E-01    0.0324430753912533
  35    8.13492E-01    0.0312977860322377
  36    7.85262E-01    0.0302117055308399
  37    7.58161E-01    0.0291690186978789
  38    7.30867E-01    0.0281189592908307
  39    7.03990E-01    0.0270848791319631
  40    6.77953E-01    0.0260831442765201
  41    6.46119E-01    0.0248583957554799
  42    6.20479E-01    0.0238719385091854
  43    5.88609E-01    0.0226457946198123
  44    5.47005E-01    0.0210451244769464
  45    5.15631E-01    0.0198380841223475
  46    5.38479E-01    0.0207171102373249
  47    4.47538E-01    0.0172182926713677
  48    5.54875E-01    0.0213479304781918
  49    5.08879E-01    0.0195783098659029
  50    5.97224E-01    0.0229772234446202
  51    3.56688E-01    0.0137230024685725
  52    8.65249E-01    0.0332890631738274
