  # July 4, 2014 12:22:22
 # jmin,jmax    0   50
 # Eau     0.00200000
 # r0,ra,rb,rdel,tol,Bau,mu   3.5000  25.0000  25.0000   4.0000  1.0000E-03  3.0130E-07  6.8548E+03
 # parity bigJ  0  0        1  0        1  1        2  0        2  1        2  2        3  0        3  1        3  2        3  3
 # jmin,jmax,maxlamb are            0          50         100
 # j and jp are          28          40
 # lam  B-lambda(j,jp)  angle
#   12     44.3109      5.8376
#   13      6.0017     10.4072
#   14     14.1271     13.7319
#   15      2.5153     16.5808
#   16      7.6329     19.1691
#   17      1.5477     21.5929
#   18      4.9749     23.9043
#   19      1.0768     26.1349
#   20      3.7298     28.3060
#   21      0.7709     30.4321
#   22      2.8245     32.5241
#   23      0.5769     34.5901
#   24      2.2470     36.6365
#   25      0.4612     38.6686
#   26      1.8820     40.6905
#   27      0.3863     42.7059
#   28      1.5443     44.7178
#   29      0.3130     46.7289
#   30      1.1397     48.7417
#   31      0.2186     50.7585
#   32      0.8253     52.7812
#   33      0.1248     54.8118
#   34      0.6148     56.8522
#   35      0.0679     58.9041
#   36      0.4293     60.9695
#   37      0.0457     63.0500
#   38      0.3217     65.1475
#   39      0.0347     67.2639
#   40      0.2696     69.4010
#   41      0.0256     71.5610
#   42      0.2304     73.7458
#   43      0.0183     75.9577
#   44      0.1902     78.1993
#   45      0.0126     80.4729
#   46      0.1365     82.7816
#   47      0.0085     85.1284
#   48      0.1086     87.5167
#   49      0.0052     89.9503
#   50      0.0971     92.4336
#   51      0.0025     94.9713
#   52      0.0608     97.5689
#   53      0.0009    100.2326
#   54      0.0233    102.9699
#   55      0.0003    105.7893
#   56      0.0078    108.7009
#   57      0.0001    111.7170
#   58      0.0031    114.8525
#   59      0.0000    118.1259
#   60      0.0007    121.5609
#   61      0.0000    125.1882
#   62      0.0001    129.0495
#   63      0.0000    133.2030
#   64      0.0001    137.7352
#   65      0.0000    142.7850
#   66      0.0001    148.6015
#   67      0.0000    155.7308
#   68      0.0001    166.0604
   0    4.93626E+01    1.0000000000000000
   1    4.35271E+01    0.8817838659932944
   2    3.53743E+01    0.7166227492053980
   3    2.82355E+01    0.5720013278012156
   4    2.30078E+01    0.4660973614806216
   5    1.92340E+01    0.3896483467499006
   6    1.65510E+01    0.3352951125037437
   7    1.46688E+01    0.2971640779052983
   8    1.31322E+01    0.2660362488086060
   9    1.16437E+01    0.2358811495444548
  10    1.02285E+01    0.2072116255040963
  11    8.98620E+00    0.1820448710512294
  12    7.94535E+00    0.1609588891171801
  13    7.11359E+00    0.1441089692522406
  14    6.46171E+00    0.1309029375526962
  15    5.89038E+00    0.1193288141270653
  16    5.33596E+00    0.1080973718526571
  17    4.83064E+00    0.0978603792542694
  18    4.40275E+00    0.0891920050844375
  19    4.02266E+00    0.0814920990489638
  20    3.68013E+00    0.0745530646596610
  21    3.40008E+00    0.0688796441423777
  22    3.18074E+00    0.0644361810207447
  23    2.98925E+00    0.0605569486685677
  24    2.81014E+00    0.0569284680552180
  25    2.64292E+00    0.0535408674723141
  26    2.48281E+00    0.0502973977690498
  27    2.32747E+00    0.0471504098479678
  28    2.18751E+00    0.0443151896337784
  29    2.07054E+00    0.0419455167328075
  30    1.96948E+00    0.0398983365689630
  31    1.87398E+00    0.0379636551996172
  32    1.78261E+00    0.0361125545792806
  33    1.69761E+00    0.0343906162232191
  34    1.62615E+00    0.0329429252092509
  35    1.55807E+00    0.0315637650017208
  36    1.50092E+00    0.0304061099979673
  37    1.43899E+00    0.0291514717000300
  38    1.38290E+00    0.0280151094181813
  39    1.32165E+00    0.0267743076385319
  40    1.27221E+00    0.0257727751854478
  41    1.19200E+00    0.0241479466471182
  42    1.18011E+00    0.0239069238176036
  43    1.06170E+00    0.0215081742987386
  44    1.08896E+00    0.0220604426457056
  45    9.66917E-01    0.0195880651772607
  46    1.01604E+00    0.0205831866046330
  47    8.79018E-01    0.0178073773353993
  48    9.61077E-01    0.0194697486128682
  49    8.05750E-01    0.0163230948777481
  50    9.74672E-01    0.0197451685610294
  51    7.53539E-01    0.0152653866684379
  52    9.34557E-01    0.0189325051237076
  53    6.68822E-01    0.0135491705856860
  54    9.95451E-01    0.0201661013628732
  55    6.18775E-01    0.0125353130711175
  56    1.42661E+00    0.0289006799909797
