  # July 4, 2014 12:22:22
 # jmin,jmax    0   50
 # Eau     0.00200000
 # r0,ra,rb,rdel,tol,Bau,mu   3.5000  25.0000  25.0000   4.0000  1.0000E-03  3.0130E-07  6.8548E+03
 # parity bigJ  0  0        1  0        1  1        2  0        2  1        2  2        3  0        3  1        3  2        3  3
 # jmin,jmax,maxlamb are            0          50         100
 # j and jp are          12          50
 # lam  B-lambda(j,jp)  angle
#   38      1.3433     13.9921
#   39      0.0057     24.7019
#   40      0.6054     32.3201
#   41      0.0061     38.7332
#   42      0.3850     44.4815
#   43      0.0052     49.8118
#   44      0.2575     54.8627
#   45      0.0038     59.7224
#   46      0.1808     64.4526
#   47      0.0024     69.1000
#   48      0.1238     73.7019
#   49      0.0013     78.2908
#   50      0.0687     82.8961
#   51      0.0005     87.5465
#   52      0.0268     92.2717
#   53      0.0002     97.1039
#   54      0.0082    102.0806
#   55      0.0001    107.2469
#   56      0.0034    112.6610
#   57      0.0000    118.4018
#   58      0.0017    124.5838
#   59      0.0000    131.3881
#   60      0.0006    139.1379
#   61      0.0000    148.5397
#   62      0.0002    162.0458
   0    4.98445E+00    1.0000000000000000
   1    3.79220E+00    0.7608071982512478
   2    2.34699E+00    0.4708630785043251
   3    1.41715E+00    0.2843143186831107
   4    1.04087E+00    0.2088229735789163
   5    8.84454E-01    0.1774428546390808
   6    7.42911E-01    0.1490458238986058
   7    6.20299E-01    0.1244469500498880
   8    5.52143E-01    0.1107731144800067
   9    5.09564E-01    0.1022309035993861
  10    4.63622E-01    0.0930137016837500
  11    4.17064E-01    0.0836730920695032
  12    3.81699E-01    0.0765780862586534
  13    3.53608E-01    0.0709422730445895
  14    3.30538E-01    0.0663138826627478
  15    3.07704E-01    0.0617328021727349
  16    2.89652E-01    0.0581112216105635
  17    2.69892E-01    0.0541467720097958
  18    2.55892E-01    0.0513380907172501
  19    2.36549E-01    0.0474574294818476
  20    2.24788E-01    0.0450978570616706
  21    2.04974E-01    0.0411227286584348
  22    1.95256E-01    0.0391730695711201
  23    1.74868E-01    0.0350826658582120
  24    2.32130E-01    0.0465708754974704
