  # July 4, 2014 12:22:22
 # jmin,jmax    0   50
 # Eau     0.00200000
 # r0,ra,rb,rdel,tol,Bau,mu   3.5000  25.0000  25.0000   4.0000  1.0000E-03  3.0130E-07  6.8548E+03
 # parity bigJ  0  0        1  0        1  1        2  0        2  1        2  2        3  0        3  1        3  2        3  3
 # jmin,jmax,maxlamb are            0          50         100
 # j and jp are          26          41
 # lam  B-lambda(j,jp)  angle
#   15     40.0424      6.6847
#   16      2.9800     11.8609
#   17     16.4877     15.5947
#   18      1.8108     18.7703
#   19     10.1588     21.6375
#   20      1.2549     24.3082
#   21      6.6934     26.8433
#   22      0.8725     29.2806
#   23      4.9506     31.6449
#   24      0.5641     33.9539
#   25      3.5698     36.2205
#   26      0.3625     38.4546
#   27      2.5821     40.6640
#   28      0.2536     42.8550
#   29      2.1417     45.0328
#   30      0.1870     47.2020
#   31      1.7123     49.3663
#   32      0.1342     51.5292
#   33      1.2889     53.6938
#   34      0.0925     55.8628
#   35      1.0269     58.0389
#   36      0.0639     60.2246
#   37      0.8718     62.4225
#   38      0.0456     64.6348
#   39      0.7488     66.8640
#   40      0.0322     69.1125
#   41      0.5816     71.3828
#   42      0.0215     73.6775
#   43      0.3824     75.9993
#   44      0.0140     78.3511
#   45      0.2449     80.7359
#   46      0.0090     83.1571
#   47      0.1670     85.6183
#   48      0.0056     88.1236
#   49      0.1026     90.6775
#   50      0.0033     93.2849
#   51      0.0641     95.9515
#   52      0.0018     98.6838
#   53      0.0470    101.4894
#   54      0.0007    104.3770
#   55      0.0265    107.3570
#   56      0.0002    110.4419
#   57      0.0083    113.6470
#   58      0.0000    116.9912
#   59      0.0012    120.4985
#   60      0.0000    124.2002
#   61      0.0001    128.1387
#   62      0.0000    132.3733
#   63      0.0001    136.9920
#   64      0.0000    142.1358
#   65      0.0001    148.0583
#   66      0.0000    155.3148
#   67      0.0002    165.8254
   0    6.15532E+01    1.0000000000000000
   1    5.28613E+01    0.8587916747752691
   2    4.09014E+01    0.6644888398804796
   3    3.08865E+01    0.5017852873796225
   4    2.41570E+01    0.3924572319110812
   5    1.95766E+01    0.3180436944569440
   6    1.60735E+01    0.2611317134756819
   7    1.32948E+01    0.2159895744346378
   8    1.12163E+01    0.1822212215738342
   9    9.77465E+00    0.1588001652108292
  10    8.72899E+00    0.1418122984001322
  11    7.83450E+00    0.1272801715752796
  12    7.05436E+00    0.1146059209520256
  13    6.44572E+00    0.1047179348007435
  14    5.98386E+00    0.0972144437837787
  15    5.58607E+00    0.0907519147483641
  16    5.19219E+00    0.0843529306707205
  17    4.79301E+00    0.0778678783821758
  18    4.44288E+00    0.0721794926708564
  19    4.19484E+00    0.0681498378752900
  20    4.02346E+00    0.0653655948912800
  21    3.86116E+00    0.0627287955747624
  22    3.68244E+00    0.0598253893746520
  23    3.49793E+00    0.0568277112563004
  24    3.31217E+00    0.0538098780848765
  25    3.12606E+00    0.0507864117802735
  26    2.95587E+00    0.0480214228708185
  27    2.81886E+00    0.0457956179299625
  28    2.71551E+00    0.0441164655468087
  29    2.63159E+00    0.0427532061124885
  30    2.55327E+00    0.0414806834835384
  31    2.47508E+00    0.0402104484917429
  32    2.39608E+00    0.0389269518280862
  33    2.31753E+00    0.0376509026873242
  34    2.24649E+00    0.0364968232917350
  35    2.16589E+00    0.0351873016775433
  36    2.11098E+00    0.0342952485541589
  37    2.01351E+00    0.0327116898300952
  38    1.97197E+00    0.0320368446064569
  39    1.85463E+00    0.0301305856389148
  40    1.81285E+00    0.0294517225616847
  41    1.68784E+00    0.0274207880307126
  42    1.66924E+00    0.0271187380506382
  43    1.52711E+00    0.0248095487124497
  44    1.59616E+00    0.0259313486075041
  45    1.44948E+00    0.0235484814020725
  46    1.57262E+00    0.0255488965640149
  47    1.32774E+00    0.0215706798114897
  48    1.56458E+00    0.0254183643095162
  49    1.01445E+00    0.0164809059035865
  50    1.63988E+00    0.0266416140754517
  51    8.18079E-01    0.0132906097918676
  52    2.06198E+00    0.0334990992492682
