  # July 4, 2014 12:22:22
 # jmin,jmax    0   50
 # Eau     0.00200000
 # r0,ra,rb,rdel,tol,Bau,mu   3.5000  25.0000  25.0000   4.0000  1.0000E-03  3.0130E-07  6.8548E+03
 # parity bigJ  0  0        1  0        1  1        2  0        2  1        2  2        3  0        3  1        3  2        3  3
 # jmin,jmax,maxlamb are            0          50         100
 # j and jp are          23          32
 # lam  B-lambda(j,jp)  angle
#    9     82.4644      6.2146
#   10      1.3881     11.1792
#   11     32.6986     14.8460
#   12      0.9832     18.0289
#   13     19.2656     20.9531
#   14      0.7332     23.7180
#   15     12.8387     26.3770
#   16      0.5491     28.9629
#   17      8.9160     31.4970
#   18      0.3973     33.9945
#   19      6.3820     36.4664
#   20      0.2879     38.9213
#   21      4.7254     41.3659
#   22      0.2173     43.8059
#   23      3.5464     46.2460
#   24      0.1723     48.6903
#   25      2.7796     51.1426
#   26      0.1379     53.6063
#   27      2.1648     56.0847
#   28      0.1086     58.5810
#   29      1.7502     61.0983
#   30      0.0854     63.6396
#   31      1.4563     66.2083
#   32      0.0671     68.8077
#   33      1.1871     71.4413
#   34      0.0522     74.1128
#   35      0.9926     76.8264
#   36      0.0399     79.5866
#   37      0.8567     82.3982
#   38      0.0298     85.2668
#   39      0.7519     88.1986
#   40      0.0215     91.2008
#   41      0.6537     94.2815
#   42      0.0144     97.4504
#   43      0.5165    100.7188
#   44      0.0090    104.1002
#   45      0.3522    107.6114
#   46      0.0056    111.2728
#   47      0.2352    115.1107
#   48      0.0034    119.1592
#   49      0.1738    123.4643
#   50      0.0019    128.0906
#   51      0.1260    133.1339
#   52      0.0009    138.7478
#   53      0.1038    145.2083
#   54      0.0003    153.1206
#   55      0.1414    164.5791
   0    9.55750E+01    1.0000000000000000
   1    7.62457E+01    0.7977574912318389
   2    5.82517E+01    0.6094873390677008
   3    4.56873E+01    0.4780254479300163
   4    3.72041E+01    0.3892658443933198
   5    2.99375E+01    0.3132356352965275
   6    2.50072E+01    0.2616503411836748
   7    2.12744E+01    0.2225942718060198
   8    1.86268E+01    0.1948920603139324
   9    1.62306E+01    0.1698201914645610
  10    1.46866E+01    0.1536661585246588
  11    1.32602E+01    0.1387414055891839
  12    1.22044E+01    0.1276942256021193
  13    1.11117E+01    0.1162619719103665
  14    1.04248E+01    0.1090748622121236
  15    9.61507E+00    0.1006024020242451
  16    9.09142E+00    0.0951234253071358
  17    8.44022E+00    0.0883098827533230
  18    8.05961E+00    0.0843276465434615
  19    7.52545E+00    0.0787386841341663
  20    7.27715E+00    0.0761407000758889
  21    6.82661E+00    0.0714267033789631
  22    6.65151E+00    0.0695946966306734
  23    6.22495E+00    0.0651315477534513
  24    6.12811E+00    0.0641183616067862
  25    5.74493E+00    0.0601091785991299
  26    5.71469E+00    0.0597927882232691
  27    5.32596E+00    0.0557255034412892
  28    5.32977E+00    0.0557653252847598
  29    4.91340E+00    0.0514088669334877
  30    5.00393E+00    0.0523560604244584
  31    4.53731E+00    0.0474738356461485
  32    4.75864E+00    0.0497896211083588
  33    4.18421E+00    0.0437793392955604
  34    4.54590E+00    0.0475637228188573
  35    3.84749E+00    0.0402562477901618
  36    4.33461E+00    0.0453529547030034
  37    3.54862E+00    0.0371291301710861
  38    4.18381E+00    0.0437751208820436
  39    3.30593E+00    0.0345899395237757
  40    4.03786E+00    0.0422480601266806
  41    3.01264E+00    0.0315211704000515
  42    3.98365E+00    0.0416808471458755
  43    2.67145E+00    0.0279513680948426
  44    4.05492E+00    0.0424266197969533
  45    2.17672E+00    0.0227750390369178
  46    4.90987E+00    0.0513718954840387
