  # July 4, 2014 12:22:22
 # jmin,jmax    0   50
 # Eau     0.00200000
 # r0,ra,rb,rdel,tol,Bau,mu   3.5000  25.0000  25.0000   4.0000  1.0000E-03  3.0130E-07  6.8548E+03
 # parity bigJ  0  0        1  0        1  1        2  0        2  1        2  2        3  0        3  1        3  2        3  3
 # jmin,jmax,maxlamb are            0          50         100
 # j and jp are          23          34
 # lam  B-lambda(j,jp)  angle
#   11     62.4575      6.6674
#   12      1.2561     11.9217
#   13     24.7498     15.7635
#   14      0.8909     19.0705
#   15     15.1838     22.0876
#   16      0.6934     24.9239
#   17     10.1129     27.6383
#   18      0.5108     30.2672
#   19      7.1661     32.8344
#   20      0.3704     35.3568
#   21      5.1321     37.8468
#   22      0.2746     40.3140
#   23      3.6784     42.7661
#   24      0.2056     45.2093
#   25      2.8489     47.6488
#   26      0.1531     50.0892
#   27      2.2332     52.5347
#   28      0.1168     54.9890
#   29      1.8104     57.4557
#   30      0.0914     59.9380
#   31      1.4911     62.4393
#   32      0.0715     64.9629
#   33      1.2057     67.5121
#   34      0.0559     70.0903
#   35      1.0032     72.7012
#   36      0.0434     75.3487
#   37      0.8567     78.0368
#   38      0.0328     80.7700
#   39      0.7441     83.5533
#   40      0.0234     86.3922
#   41      0.6381     89.2930
#   42      0.0155     92.2628
#   43      0.4893     95.3096
#   44      0.0098     98.4431
#   45      0.3234    101.6743
#   46      0.0062    105.0170
#   47      0.2152    108.4874
#   48      0.0038    112.1059
#   49      0.1545    115.8985
#   50      0.0022    119.8988
#   51      0.1045    124.1523
#   52      0.0012    128.7229
#   53      0.0790    133.7052
#   54      0.0005    139.2508
#   55      0.0706    145.6327
#   56      0.0001    153.4481
#   57      0.0657    164.7656
   0    8.28536E+01    1.0000000000000000
   1    6.65519E+01    0.8032470432049160
   2    5.00555E+01    0.6041433976310975
   3    3.86959E+01    0.4670398692484576
   4    3.12253E+01    0.3768730709005609
   5    2.51107E+01    0.3030728361741558
   6    2.05979E+01    0.2486061056911673
   7    1.74312E+01    0.2103849605979544
   8    1.52487E+01    0.1840433824609310
   9    1.33731E+01    0.1614066849560669
  10    1.20518E+01    0.1454595673182308
  11    1.09730E+01    0.1324389914648665
  12    1.01810E+01    0.1228790559690732
  13    9.28083E+00    0.1120148147259216
  14    8.63609E+00    0.1042331699985065
  15    7.97869E+00    0.0962986303356519
  16    7.52213E+00    0.0907882089827477
  17    6.98507E+00    0.0843061097945945
  18    6.66448E+00    0.0804368660622014
  19    6.23477E+00    0.0752504584755637
  20    5.98139E+00    0.0721923135452401
  21    5.60984E+00    0.0677078714718314
  22    5.41358E+00    0.0653391208080403
  23    5.06777E+00    0.0611652955372781
  24    4.90501E+00    0.0592009637603216
  25    4.58526E+00    0.0553416850886091
  26    4.50462E+00    0.0543684800446593
  27    4.22329E+00    0.0509729162415643
  28    4.21333E+00    0.0508526654239274
  29    3.92550E+00    0.0473787101390611
  30    3.94992E+00    0.0476734360951180
  31    3.64380E+00    0.0439787203814714
  32    3.72265E+00    0.0449304103746858
  33    3.37922E+00    0.0407854708206737
  34    3.56378E+00    0.0430129792539466
  35    3.11381E+00    0.0375820804986024
  36    3.44799E+00    0.0416154660995320
  37    2.83210E+00    0.0341820094128614
  38    3.29998E+00    0.0398290489640356
  39    2.54508E+00    0.0307177700332002
  40    3.18856E+00    0.0384843181895841
  41    2.33125E+00    0.0281369474495069
  42    3.13841E+00    0.0378789904605127
  43    2.06608E+00    0.0249365653635757
  44    3.18329E+00    0.0384206496938267
  45    1.59428E+00    0.0192421396084672
  46    3.72488E+00    0.0449574221013218
