  # July 4, 2014 12:22:22
 # jmin,jmax    0   50
 # Eau     0.00200000
 # r0,ra,rb,rdel,tol,Bau,mu   3.5000  25.0000  25.0000   4.0000  1.0000E-03  3.0130E-07  6.8548E+03
 # parity bigJ  0  0        1  0        1  1        2  0        2  1        2  2        3  0        3  1        3  2        3  3
 # jmin,jmax,maxlamb are            0          50         100
 # j and jp are          31          44
 # lam  B-lambda(j,jp)  angle
#   13     56.7252      5.5140
#   14      6.3669      9.8082
#   15     25.5847     12.9207
#   16      3.1312     15.5784
#   17     15.7715     17.9856
#   18      2.1341     20.2336
#   19      9.9806     22.3718
#   20      1.4846     24.4306
#   21      6.8579     26.4300
#   22      1.1157     28.3840
#   23      5.0775     30.3029
#   24      0.8703     32.1944
#   25      3.6348     34.0645
#   26      0.6814     35.9182
#   27      2.5631     37.7593
#   28      0.5440     39.5912
#   29      1.9313     41.4166
#   30      0.4313     43.2381
#   31      1.6060     45.0578
#   32      0.3155     46.8775
#   33      1.3612     48.6990
#   34      0.2073     50.5241
#   35      1.0811     52.3540
#   36      0.1244     54.1904
#   37      0.9187     56.0345
#   38      0.0693     57.8878
#   39      0.8270     59.7515
#   40      0.0390     61.6270
#   41      0.6104     63.5155
#   42      0.0254     65.4185
#   43      0.3629     67.3373
#   44      0.0175     69.2733
#   45      0.2218     71.2281
#   46      0.0109     73.2031
#   47      0.1361     75.2001
#   48      0.0064     77.2208
#   49      0.0782     79.2671
#   50      0.0036     81.3409
#   51      0.0554     83.4446
#   52      0.0017     85.5803
#   53      0.0363     87.7509
#   54      0.0006     89.9591
#   55      0.0140     92.2082
#   56      0.0001     94.5017
#   57      0.0026     96.8436
#   58      0.0000     99.2385
#   59      0.0003    101.6915
#   60      0.0000    104.2087
#   61      0.0001    106.7969
#   62      0.0000    109.4642
#   63      0.0001    112.2204
#   64      0.0000    115.0770
#   65      0.0001    118.0483
#   66      0.0000    121.1519
#   67      0.0000    124.4103
#   68      0.0000    127.8528
#   69      0.0000    131.5190
#   70      0.0000    135.4644
#   71      0.0000    139.7716
#   72      0.0000    144.5725
#   73      0.0000    150.1047
#   74      0.0000    156.8879
#   75      0.0000    166.7186
   0    7.27856E+01    1.0000000000000000
   1    6.54112E+01    0.8986833820813486
   2    5.40252E+01    0.7422505862150364
   3    4.27706E+01    0.5876243233975942
   4    3.39857E+01    0.4669282202355861
   5    2.77324E+01    0.3810147677467511
   6    2.30533E+01    0.3167293956179908
   7    1.92165E+01    0.2640150073848935
   8    1.60231E+01    0.2201403462247932
   9    1.35158E+01    0.1856928526211016
  10    1.16829E+01    0.1605104545642106
  11    1.03626E+01    0.1423715848906130
  12    9.31750E+00    0.1280129264753971
  13    8.38709E+00    0.1152300384310622
  14    7.56279E+00    0.1039049762371491
  15    6.90012E+00    0.0948005947936593
  16    6.39397E+00    0.0878466843942513
  17    5.97585E+00    0.0821020770452394
  18    5.59803E+00    0.0769111518641286
  19    5.26788E+00    0.0723753437865370
  20    5.00826E+00    0.0688084224565521
  21    4.81822E+00    0.0661974866178572
  22    4.66775E+00    0.0641301074191556
  23    4.51101E+00    0.0619766811830984
  24    4.31505E+00    0.0592843403006167
  25    4.09072E+00    0.0562023121745604
  26    3.88466E+00    0.0533713046860914
  27    3.72957E+00    0.0512404347114899
  28    3.61362E+00    0.0496474167405366
  29    3.50534E+00    0.0481598157272887
  30    3.39339E+00    0.0466217123920950
  31    3.29023E+00    0.0452043689641911
  32    3.20770E+00    0.0440705531385134
  33    3.14234E+00    0.0431724925670180
  34    3.08296E+00    0.0423566761445424
  35    3.02223E+00    0.0415223128373752
  36    2.95985E+00    0.0406653023326033
  37    2.89774E+00    0.0398119778218215
  38    2.83759E+00    0.0389856213573501
  39    2.77930E+00    0.0381846976359607
  40    2.72230E+00    0.0374016587983537
  41    2.66568E+00    0.0366237364139214
  42    2.60842E+00    0.0358369732098273
  43    2.54922E+00    0.0350236401968385
  44    2.48877E+00    0.0341931804570807
  45    2.42482E+00    0.0333145689655154
  46    2.35642E+00    0.0323747490175482
  47    2.28917E+00    0.0314508626502455
  48    2.21014E+00    0.0303650084495729
  49    2.12390E+00    0.0291802721060660
  50    2.05916E+00    0.0282907092463078
  51    1.94111E+00    0.0266689299654018
  52    1.88257E+00    0.0258645611853822
  53    1.78138E+00    0.0244743171621293
  54    1.76971E+00    0.0243139449290253
  55    1.60843E+00    0.0220982188669262
  56    1.62617E+00    0.0223418916589870
  57    1.50790E+00    0.0207170333993079
  58    1.66083E+00    0.0228181499708193
  59    1.17804E+00    0.0161850801495559
  60    1.67313E+00    0.0229871311103651
  61    7.05596E-01    0.0096941752549583
  62    1.80901E+00    0.0248539583922767
