  # July 4, 2014 12:22:22
 # jmin,jmax    0   50
 # Eau     0.00200000
 # r0,ra,rb,rdel,tol,Bau,mu   3.5000  25.0000  25.0000   4.0000  1.0000E-03  3.0130E-07  6.8548E+03
 # parity bigJ  0  0        1  0        1  1        2  0        2  1        2  2        3  0        3  1        3  2        3  3
 # jmin,jmax,maxlamb are            0          50         100
 # j and jp are          24          42
 # lam  B-lambda(j,jp)  angle
#   18     16.0751      7.5234
#   19      1.6963     13.3099
#   20      6.1267     17.4601
#   21      1.0424     20.9725
#   22      3.8397     24.1303
#   23      0.7212     27.0609
#   24      2.8320     29.8343
#   25      0.5092     32.4936
#   26      2.2060     35.0676
#   27      0.3703     37.5768
#   28      1.7222     40.0362
#   29      0.2784     42.4574
#   30      1.3721     44.8496
#   31      0.2099     47.2204
#   32      1.2065     49.5760
#   33      0.1504     51.9217
#   34      0.9603     54.2623
#   35      0.0977     56.6019
#   36      0.6028     58.9444
#   37      0.0585     61.2933
#   38      0.3940     63.6521
#   39      0.0365     66.0239
#   40      0.3005     68.4120
#   41      0.0253     70.8197
#   42      0.2315     73.2501
#   43      0.0175     75.7066
#   44      0.1843     78.1928
#   45      0.0114     80.7125
#   46      0.1335     83.2695
#   47      0.0073     85.8683
#   48      0.1069     88.5137
#   49      0.0042     91.2110
#   50      0.0980     93.9661
#   51      0.0020     96.7859
#   52      0.0634     99.6782
#   53      0.0007    102.6520
#   54      0.0249    105.7180
#   55      0.0003    108.8892
#   56      0.0084    112.1811
#   57      0.0001    115.6132
#   58      0.0034    119.2099
#   59      0.0000    123.0034
#   60      0.0008    127.0368
#   61      0.0000    131.3707
#   62      0.0001    136.0948
#   63      0.0000    141.3531
#   64      0.0002    147.4041
#   65      0.0000    154.8143
#   66      0.0002    165.5431
   0    3.14637E+01    1.0000000000000000
   1    2.61842E+01    0.8322027697363480
   2    1.91743E+01    0.6094100273303845
   3    1.35790E+01    0.4315765116659250
   4    1.00122E+01    0.3182127414629146
   5    7.85741E+00    0.2497292953693117
   6    6.62368E+00    0.2105181424746025
   7    5.87146E+00    0.1866107103225580
   8    5.17218E+00    0.1643856130293540
   9    4.43110E+00    0.1408321064723189
  10    3.80683E+00    0.1209911733103244
  11    3.36467E+00    0.1069382348773571
  12    3.05144E+00    0.0969828259133717
  13    2.82258E+00    0.0897091154781343
  14    2.62051E+00    0.0832867163444556
  15    2.37107E+00    0.0753589392079174
  16    2.09834E+00    0.0666909353700845
  17    1.89388E+00    0.0601925383270061
  18    1.77771E+00    0.0565002430088992
  19    1.69531E+00    0.0538813292681847
  20    1.61112E+00    0.0512055728736182
  21    1.51631E+00    0.0481923368067631
  22    1.40778E+00    0.0447431157912912
  23    1.29959E+00    0.0413042678500905
  24    1.21785E+00    0.0387064391036432
  25    1.16573E+00    0.0370498659053678
  26    1.12159E+00    0.0356472257592051
  27    1.06776E+00    0.0339361395964197
  28    1.01034E+00    0.0321111476082962
  29    9.54548E-01    0.0303380840048404
  30    9.12216E-01    0.0289926430836490
  31    8.69579E-01    0.0276375444491372
  32    8.38163E-01    0.0266390624808648
  33    8.01717E-01    0.0254806953890726
  34    7.76150E-01    0.0246681204757630
  35    7.42725E-01    0.0236057749718294
  36    7.35859E-01    0.0233875521209074
  37    6.79572E-01    0.0215985980314578
  38    7.20680E-01    0.0229051212845899
  39    6.22882E-01    0.0197968462075977
  40    6.93781E-01    0.0220501917746616
  41    6.01691E-01    0.0191233412803777
  42    7.18321E-01    0.0228301404274628
  43    6.00466E-01    0.0190844016101547
  44    7.08170E-01    0.0225075395851356
  45    4.86710E-01    0.0154689306697299
  46    7.22803E-01    0.0229726008352193
  47    5.44850E-01    0.0173167808997010
  48    1.07977E+00    0.0343178826065086
