  # July 4, 2014 12:22:22
 # jmin,jmax    0   50
 # Eau     0.00200000
 # r0,ra,rb,rdel,tol,Bau,mu   3.5000  25.0000  25.0000   4.0000  1.0000E-03  3.0130E-07  6.8548E+03
 # parity bigJ  0  0        1  0        1  1        2  0        2  1        2  2        3  0        3  1        3  2        3  3
 # jmin,jmax,maxlamb are            0          50         100
 # j and jp are          30          45
 # lam  B-lambda(j,jp)  angle
#   15     44.3071      5.9520
#   16      4.4445     10.5557
#   17     19.2474     13.8741
#   18      2.7658     16.6941
#   19     12.6268     19.2380
#   20      1.8740     21.6052
#   21      8.6680     23.8499
#   22      1.3079     26.0055
#   23      6.0609     28.0941
#   24      0.9928     30.1313
#   25      4.3930     32.1283
#   26      0.7505     34.0939
#   27      3.6448     36.0347
#   28      0.5382     37.9563
#   29      3.0616     39.8630
#   30      0.3601     41.7586
#   31      2.1817     43.6463
#   32      0.2299     45.5288
#   33      1.4648     47.4085
#   34      0.1432     49.2877
#   35      1.1727     51.1682
#   36      0.0871     53.0520
#   37      1.0748     54.9408
#   38      0.0544     56.8362
#   39      0.8606     58.7397
#   40      0.0368     60.6530
#   41      0.5346     62.5776
#   42      0.0258     64.5149
#   43      0.3152     66.4665
#   44      0.0172     68.4340
#   45      0.2197     70.4189
#   46      0.0107     72.4231
#   47      0.1381     74.4480
#   48      0.0064     76.4958
#   49      0.0771     78.5682
#   50      0.0037     80.6674
#   51      0.0541     82.7957
#   52      0.0017     84.9555
#   53      0.0344     87.1495
#   54      0.0006     89.3806
#   55      0.0127     91.6520
#   56      0.0001     93.9675
#   57      0.0023     96.3310
#   58      0.0000     98.7472
#   59      0.0002    101.2212
#   60      0.0000    103.7592
#   61      0.0000    106.3680
#   62      0.0000    109.0559
#   63      0.0001    111.8327
#   64      0.0000    114.7099
#   65      0.0001    117.7019
#   66      0.0000    120.8265
#   67      0.0000    124.1062
#   68      0.0000    127.5706
#   69      0.0000    131.2594
#   70      0.0000    135.2284
#   71      0.0000    139.5606
#   72      0.0000    144.3886
#   73      0.0000    149.9511
#   74      0.0000    156.7705
#   75      0.0000    166.6523
   0    6.66181E+01    1.0000000000000000
   1    5.93244E+01    0.8905140117008159
   2    4.79707E+01    0.7200849545390319
   3    3.66423E+01    0.5500352009495836
   4    2.78222E+01    0.4176370071049403
   5    2.18118E+01    0.3274158700068843
   6    1.77675E+01    0.2667061899458547
   7    1.48457E+01    0.2228469812472512
   8    1.26004E+01    0.1891435934702084
   9    1.08584E+01    0.1629950267128094
  10    9.53220E+00    0.1430872062462820
  11    8.51809E+00    0.1278644856696690
  12    7.68055E+00    0.1152921770209187
  13    6.92304E+00    0.1039212287889083
  14    6.25817E+00    0.0939409379618324
  15    5.76404E+00    0.0865235343919212
  16    5.46802E+00    0.0820799736440017
  17    5.29742E+00    0.0795191388568914
  18    5.13269E+00    0.0770463942088243
  19    4.88451E+00    0.0733210579292929
  20    4.53820E+00    0.0681226065076331
  21    4.15825E+00    0.0624191796942121
  22    3.84304E+00    0.0576875303146386
  23    3.64493E+00    0.0547137514536502
  24    3.53054E+00    0.0529967031674456
  25    3.42771E+00    0.0514531152992397
  26    3.29910E+00    0.0495225964525499
  27    3.15684E+00    0.0473871029918901
  28    3.02294E+00    0.0453771841377572
  29    2.90142E+00    0.0435529813815969
  30    2.78736E+00    0.0418408794407415
  31    2.68240E+00    0.0402653551530275
  32    2.59291E+00    0.0389220565218548
  33    2.52008E+00    0.0378287367797919
  34    2.45833E+00    0.0369018168587870
  35    2.40063E+00    0.0360356261226485
  36    2.34357E+00    0.0351791218579773
  37    2.28665E+00    0.0343247617436003
  38    2.23121E+00    0.0334925335680519
  39    2.17790E+00    0.0326923263279185
  40    2.12705E+00    0.0319290044193731
  41    2.07833E+00    0.0311976946399038
  42    2.03116E+00    0.0304896488347501
  43    1.98438E+00    0.0297873309341419
  44    1.93917E+00    0.0291088031404348
  45    1.89413E+00    0.0284326849395746
  46    1.84848E+00    0.0277473922618693
  47    1.81117E+00    0.0271873488657712
  48    1.76987E+00    0.0265674004633347
  49    1.72222E+00    0.0258520973646029
  50    1.70786E+00    0.0256365696939268
  51    1.62205E+00    0.0243484012128701
  52    1.57454E+00    0.0236352466362238
  53    1.45966E+00    0.0219108447361590
  54    1.42976E+00    0.0214620631984977
  55    1.21111E+00    0.0181798894764380
  56    1.29134E+00    0.0193842819996599
  57    1.23988E+00    0.0186117729811144
  58    1.63492E+00    0.0245417368922960
  59    9.71563E-01    0.0145840637557096
  60    2.00867E+00    0.0301519368872047
